4.012239999999999895e+02
4.025790000000000077e+02
4.039340000000000259e+02
4.052880000000000109e+02
4.066429999999999723e+02
4.079959999999999809e+02
4.093489999999999895e+02
4.107029999999999745e+02
4.120559999999999832e+02
4.134080000000000155e+02
4.147599999999999909e+02
4.161120000000000232e+02
4.174649999999999750e+02
4.188159999999999741e+02
4.201669999999999732e+02
4.215169999999999959e+02
4.228670000000000186e+02
4.242169999999999845e+02
4.255670000000000073e+02
4.269169999999999732e+02
4.282660000000000196e+02
4.296139999999999759e+02
4.309619999999999891e+02
4.323100000000000023e+02
4.336580000000000155e+02
4.350059999999999718e+02
4.363530000000000086e+02
4.376990000000000123e+02
4.390459999999999923e+02
4.403919999999999959e+02
4.417379999999999995e+02
4.430840000000000032e+02
4.444279999999999973e+02
4.457730000000000246e+02
4.471179999999999950e+02
4.484619999999999891e+02
4.498059999999999832e+02
4.511499999999999773e+02
4.524929999999999950e+02
4.538360000000000127e+02
4.551779999999999973e+02
4.565199999999999818e+02
4.578629999999999995e+02
4.592040000000000077e+02
4.605459999999999923e+02
4.618860000000000241e+02
4.632280000000000086e+02
4.645679999999999836e+02
4.659080000000000155e+02
4.672479999999999905e+02
4.685869999999999891e+02
4.699259999999999877e+02
4.712649999999999864e+02
4.726030000000000086e+02
4.739420000000000073e+02
4.752799999999999727e+02
4.766170000000000186e+02
4.779540000000000077e+02
4.792919999999999732e+02
4.806279999999999859e+02
4.819639999999999986e+02
4.833000000000000114e+02
4.846360000000000241e+02
4.859710000000000036e+02
4.873059999999999832e+02
4.886410000000000196e+02
4.899750000000000227e+02
4.913090000000000259e+02
4.926429999999999723e+02
4.939759999999999991e+02
4.953090000000000259e+02
4.966419999999999959e+02
4.979750000000000227e+02
4.993059999999999832e+02
5.006390000000000100e+02
5.019700000000000273e+02
5.033009999999999877e+02
5.046320000000000050e+02
5.059630000000000223e+02
5.072930000000000064e+02
5.086229999999999905e+02
5.099529999999999745e+02
5.112819999999999823e+02
5.126109999999999900e+02
5.139389999999999645e+02
5.152680000000000291e+02
5.165960000000000036e+02
5.179230000000000018e+02
5.192509999999999764e+02
5.205779999999999745e+02
5.219049999999999727e+02
5.232309999999999945e+02
5.245579999999999927e+02
5.258840000000000146e+02
5.272089999999999463e+02
5.285349999999999682e+02
5.298590000000000373e+02
5.311839999999999691e+02
5.325080000000000382e+02
5.338319999999999936e+02
5.351549999999999727e+02
5.364790000000000418e+02
5.378020000000000209e+02
5.391250000000000000e+02
5.404479999999999791e+02
5.417690000000000055e+02
5.430910000000000082e+02
5.444120000000000346e+02
5.457340000000000373e+02
5.470549999999999500e+02
5.483750000000000000e+02
5.496960000000000264e+02
5.510149999999999864e+02
5.523350000000000364e+02
5.536539999999999964e+02
5.549729999999999563e+02
5.562920000000000300e+02
5.576100000000000136e+02
5.589279999999999973e+02
5.602450000000000045e+02
5.615629999999999882e+02
5.628809999999999718e+02
5.641970000000000027e+02
5.655140000000000100e+02
5.668300000000000409e+02
5.681449999999999818e+02
5.694610000000000127e+02
5.707759999999999536e+02
5.720910000000000082e+02
5.734059999999999491e+02
5.747200000000000273e+02
5.760349999999999682e+02
5.773479999999999563e+02
5.786609999999999445e+02
5.799750000000000227e+02
5.812870000000000346e+02
5.826000000000000227e+02
5.839120000000000346e+02
5.852229999999999563e+02
5.865349999999999682e+02
5.878460000000000036e+02
5.891570000000000391e+02
5.904679999999999609e+02
5.917780000000000200e+02
5.930879999999999654e+02
5.943970000000000482e+02
5.957069999999999936e+02
5.970159999999999627e+02
5.983250000000000455e+02
5.996330000000000382e+02
6.009420000000000073e+02
6.022490000000000236e+02
6.035570000000000164e+02
6.048640000000000327e+02
6.061710000000000491e+02
6.074769999999999754e+02
6.087830000000000155e+02
6.100890000000000555e+02
6.113949999999999818e+02
6.127000000000000455e+02
6.140049999999999955e+02
6.153099999999999454e+02
6.166150000000000091e+02
6.179189999999999827e+02
6.192219999999999800e+02
6.205259999999999536e+02
6.218289999999999509e+02
6.231330000000000382e+02
6.244349999999999454e+02
6.257369999999999663e+02
6.270389999999999873e+02
6.283410000000000082e+02
6.296420000000000528e+02
6.309429999999999836e+02
6.322440000000000282e+02
6.335439999999999827e+02
6.348450000000000273e+02
6.361440000000000055e+02
6.374429999999999836e+02
6.387430000000000518e+02
6.400420000000000300e+02
6.413400000000000318e+02
6.426390000000000100e+02
6.439370000000000118e+02
6.452340000000000373e+02
6.465320000000000391e+02
6.478279999999999745e+02
6.491259999999999764e+02
6.504220000000000255e+02
6.517190000000000509e+02
6.530140000000000100e+02
6.543099999999999454e+02
6.556050000000000182e+02
6.568999999999999773e+02
6.581950000000000500e+02
6.594890000000000327e+02
6.607830000000000155e+02
6.620769999999999982e+02
6.633700000000000045e+02
6.646639999999999873e+02
6.659560000000000173e+02
6.672490000000000236e+02
6.685410000000000537e+02
6.698319999999999936e+02
6.711240000000000236e+02
6.724149999999999636e+02
6.737069999999999936e+02
6.749980000000000473e+02
6.762880000000000109e+02
6.775769999999999982e+02
6.788680000000000518e+02
6.801570000000000391e+02
6.814470000000000027e+02
6.827350000000000136e+02
6.840230000000000246e+02
6.853120000000000118e+02
6.866000000000000227e+02
6.878880000000000337e+02
6.891749999999999545e+02
6.904619999999999891e+02
6.917480000000000473e+02
6.930359999999999445e+02
6.943220000000000027e+02
6.956079999999999472e+02
6.968930000000000291e+02
6.981779999999999973e+02
6.994629999999999654e+02
7.007469999999999573e+02
7.020320000000000391e+02
7.033160000000000309e+02
7.046000000000000227e+02
7.058840000000000146e+02
7.071660000000000537e+02
7.084489999999999554e+02
7.097319999999999709e+02
7.110140000000000100e+02
7.122960000000000491e+02
7.135779999999999745e+02
7.148590000000000373e+02
7.161399999999999864e+02
7.174199999999999591e+02
7.187010000000000218e+02
7.199809999999999945e+02
7.212619999999999436e+02
7.225410000000000537e+02
7.238200000000000500e+02
7.250990000000000464e+02
7.263780000000000427e+02
7.276559999999999491e+02
7.289339999999999691e+02
7.302119999999999891e+02
7.314890000000000327e+02
7.327659999999999627e+02
7.340430000000000064e+02
7.353200000000000500e+02
7.365960000000000036e+02
7.378719999999999573e+02
7.391470000000000482e+02
7.404230000000000018e+02
7.416979999999999791e+02
7.429729999999999563e+02
7.442469999999999573e+02
7.455220000000000482e+02
7.467949999999999591e+02
7.480689999999999600e+02
7.493419999999999845e+02
7.506150000000000091e+02
7.518880000000000337e+02
7.531599999999999682e+02
7.544329999999999927e+02
7.557039999999999509e+02
7.569759999999999991e+02
7.582469999999999573e+02
7.595180000000000291e+02
7.607880000000000109e+02
7.620589999999999691e+02
7.633289999999999509e+02
7.645979999999999563e+02
7.658680000000000518e+02
7.671369999999999436e+02
7.684059999999999491e+02
7.696739999999999782e+02
7.709429999999999836e+02
7.722110000000000127e+02
7.734779999999999518e+02
7.747450000000000045e+02
7.760119999999999436e+02
7.772789999999999964e+02
7.785449999999999591e+02
7.798120000000000118e+02
7.810769999999999982e+02
7.823429999999999609e+02
7.836079999999999472e+02
7.848740000000000236e+02
7.861380000000000337e+02
7.874020000000000437e+02
7.886660000000000537e+02
7.899299999999999500e+02
7.911939999999999600e+02
7.924569999999999936e+02
7.937200000000000273e+02
7.949819999999999709e+02
7.962450000000000045e+02
7.975069999999999482e+02
7.987690000000000055e+02
8.000299999999999727e+02
8.012910000000000537e+02
8.025520000000000209e+02
8.038129999999999882e+02
8.050729999999999791e+02
8.063319999999999936e+02
8.075929999999999609e+02
8.088519999999999754e+02
8.101109999999999900e+02
8.113690000000000282e+02
8.126290000000000191e+02
8.138869999999999436e+02
8.151449999999999818e+02
8.164020000000000437e+02
8.176589999999999918e+02
8.189170000000000300e+02
8.201730000000000018e+02
8.214299999999999500e+02
8.226860000000000355e+02
8.239420000000000073e+02
8.251970000000000027e+02
8.264519999999999982e+02
8.277079999999999700e+02
8.289619999999999891e+02
8.302160000000000082e+02
8.314710000000000036e+02
8.327250000000000227e+02
8.339779999999999518e+02
8.352309999999999945e+02
8.364850000000000136e+02
8.377369999999999663e+02
8.389900000000000091e+02
8.402409999999999854e+02
8.414930000000000518e+02
8.427450000000000045e+02
8.439959999999999809e+02
8.452469999999999573e+02
8.464980000000000473e+02
8.477480000000000473e+02
8.489969999999999573e+02
8.502480000000000473e+02
8.514969999999999573e+02
8.527459999999999809e+02
8.539950000000000045e+02
8.552440000000000282e+02
8.564919999999999618e+02
8.577400000000000091e+02
8.589880000000000564e+02
8.602350000000000136e+02
8.614819999999999709e+02
8.627290000000000418e+02
8.639759999999999991e+02
8.652219999999999800e+02
8.664679999999999609e+02
8.677140000000000555e+02
8.689589999999999463e+02
8.702039999999999509e+02
8.714489999999999554e+02
8.726939999999999600e+02
8.739379999999999882e+02
8.751820000000000164e+02
8.764249999999999545e+02
8.776689999999999827e+02
8.789120000000000346e+02
8.801549999999999727e+02
8.813970000000000482e+02
8.826390000000000100e+02
8.838819999999999482e+02
8.851230000000000473e+02
8.863640000000000327e+02
8.876050000000000182e+02
8.888460000000000036e+02
8.900869999999999891e+02
8.913269999999999982e+02
8.925670000000000073e+02
8.938060000000000400e+02
8.950460000000000491e+02
8.962849999999999682e+02
8.975230000000000246e+02
8.987619999999999436e+02
9.000000000000000000e+02
9.012380000000000564e+02
9.024759999999999991e+02
9.037129999999999654e+02
9.049500000000000455e+02
9.061870000000000118e+02
9.074239999999999782e+02
9.086589999999999918e+02
9.098959999999999582e+02
9.111309999999999718e+02
9.123659999999999854e+02
9.136019999999999754e+02
9.148360000000000127e+02
9.160710000000000264e+02
9.173049999999999500e+02
9.185380000000000109e+02
9.197730000000000246e+02
9.210059999999999718e+02
9.222380000000000564e+02
9.234719999999999800e+02
9.247039999999999509e+02
9.259360000000000355e+02
9.271680000000000064e+02
9.283990000000000009e+02
9.296309999999999718e+02
9.308619999999999663e+02
9.320929999999999609e+02
9.333239999999999554e+02
9.345539999999999736e+02
9.357839999999999918e+02
9.370130000000000337e+02
9.382419999999999618e+02
9.394710000000000036e+02
9.407000000000000455e+02
9.419289999999999736e+02
9.431570000000000391e+02
9.443849999999999909e+02
9.456130000000000564e+02
9.468400000000000318e+02
9.480670000000000073e+02
9.492939999999999827e+02
9.505199999999999818e+02
9.517469999999999573e+02
9.529719999999999800e+02
9.541979999999999791e+02
9.554230000000000018e+02
9.566480000000000246e+02
9.578730000000000473e+02
9.590979999999999563e+02
9.603220000000000027e+02
9.615460000000000491e+02
9.627699999999999818e+02
9.639930000000000518e+02
9.652160000000000082e+02
9.664389999999999645e+02
9.676609999999999445e+02
9.688830000000000382e+02
9.701050000000000182e+02
9.713269999999999982e+02
9.725489999999999782e+02
9.737699999999999818e+02
9.749909999999999854e+02
9.762110000000000127e+02
9.774320000000000164e+02
9.786509999999999536e+02
9.798709999999999809e+02
9.810910000000000082e+02
9.823099999999999454e+02
9.835289999999999964e+02
9.847480000000000473e+02
9.859650000000000318e+02
9.871839999999999691e+02
9.884009999999999536e+02
9.896190000000000282e+02
9.908360000000000127e+02
9.920529999999999973e+02
9.932699999999999818e+02
9.944859999999999900e+02
9.957019999999999982e+02
9.969180000000000064e+02
9.981330000000000382e+02
9.993479999999999563e+02
1.000559999999999945e+03
1.001779999999999973e+03
1.002990000000000009e+03
1.004210000000000036e+03
1.005419999999999959e+03
1.006629999999999995e+03
1.007850000000000023e+03
1.009059999999999945e+03
1.010269999999999982e+03
1.011490000000000009e+03
1.012700000000000045e+03
1.013909999999999968e+03
1.015120000000000005e+03
1.016330000000000041e+03
1.017539999999999964e+03
1.018750000000000000e+03
1.019960000000000036e+03
1.021169999999999959e+03
1.022389999999999986e+03
1.023590000000000032e+03
1.024799999999999955e+03
1.026009999999999991e+03
1.027220000000000027e+03
1.028430000000000064e+03
1.029640000000000100e+03
1.030849999999999909e+03
1.032049999999999955e+03
1.033259999999999991e+03
1.034470000000000027e+03
1.035680000000000064e+03
1.036880000000000109e+03
1.038089999999999918e+03
1.039289999999999964e+03
1.040500000000000000e+03
1.041710000000000036e+03
1.042910000000000082e+03
1.044119999999999891e+03
1.045319999999999936e+03
1.046519999999999982e+03
1.047730000000000018e+03
1.048930000000000064e+03
1.050140000000000100e+03
1.051339999999999918e+03
1.052539999999999964e+03
1.053750000000000000e+03
1.054950000000000045e+03
1.056150000000000091e+03
1.057349999999999909e+03
1.058549999999999955e+03
1.059750000000000000e+03
1.060960000000000036e+03
1.062160000000000082e+03
1.063359999999999900e+03
1.064559999999999945e+03
1.065759999999999991e+03
1.066960000000000036e+03
1.068160000000000082e+03
1.069359999999999900e+03
1.070549999999999955e+03
1.071750000000000000e+03
1.072950000000000045e+03
1.074150000000000091e+03
1.075349999999999909e+03
1.076539999999999964e+03
1.077740000000000009e+03
1.078940000000000055e+03
1.080140000000000100e+03
1.081329999999999927e+03
1.082529999999999973e+03
1.083720000000000027e+03
1.084920000000000073e+03
1.086109999999999900e+03
1.087309999999999945e+03
1.088500000000000000e+03
1.089700000000000045e+03
1.090890000000000100e+03
1.092089999999999918e+03
1.093279999999999973e+03
1.094470000000000027e+03
1.095670000000000073e+03
1.096859999999999900e+03
1.098049999999999955e+03
1.099240000000000009e+03
1.100440000000000055e+03
1.101630000000000109e+03
1.102819999999999936e+03
1.104009999999999991e+03
1.105200000000000045e+03
1.106390000000000100e+03
1.107579999999999927e+03
1.108769999999999982e+03
1.109960000000000036e+03
1.111150000000000091e+03
1.112339999999999918e+03
1.113529999999999973e+03
1.114720000000000027e+03
1.115910000000000082e+03
1.117099999999999909e+03
1.118279999999999973e+03
1.119470000000000027e+03
1.120660000000000082e+03
1.121849999999999909e+03
1.123029999999999973e+03
1.124220000000000027e+03
1.125410000000000082e+03
1.126589999999999918e+03
1.127779999999999973e+03
1.128960000000000036e+03
1.130150000000000091e+03
1.131329999999999927e+03
1.132519999999999982e+03
1.133700000000000045e+03
1.134890000000000100e+03
1.136069999999999936e+03
1.137250000000000000e+03
1.138440000000000055e+03
1.139619999999999891e+03
1.140799999999999955e+03
1.141980000000000018e+03
1.143170000000000073e+03
1.144349999999999909e+03
1.145529999999999973e+03
1.146710000000000036e+03
1.147890000000000100e+03
1.149069999999999936e+03
1.150250000000000000e+03
1.151430000000000064e+03
1.152609999999999900e+03
1.153789999999999964e+03
1.154970000000000027e+03
1.156150000000000091e+03
1.157329999999999927e+03
1.158509999999999991e+03
1.159690000000000055e+03
1.160869999999999891e+03
1.162049999999999955e+03
1.163220000000000027e+03
1.164400000000000091e+03
1.165579999999999927e+03
1.166750000000000000e+03
1.167930000000000064e+03
1.169109999999999900e+03
1.170279999999999973e+03
1.171460000000000036e+03
1.172630000000000109e+03
1.173809999999999945e+03
1.174980000000000018e+03
1.176160000000000082e+03
1.177329999999999927e+03
1.178509999999999991e+03
1.179680000000000064e+03
1.180849999999999909e+03
1.182029999999999973e+03
1.183200000000000045e+03
1.184369999999999891e+03
1.185549999999999955e+03
1.186720000000000027e+03
1.187890000000000100e+03
1.189059999999999945e+03
1.190230000000000018e+03
1.191400000000000091e+03
1.192579999999999927e+03
1.193750000000000000e+03
1.194920000000000073e+03
1.196089999999999918e+03
1.197259999999999991e+03
1.198430000000000064e+03
1.199599999999999909e+03
1.200759999999999991e+03
1.201930000000000064e+03
1.203099999999999909e+03
1.204269999999999982e+03
1.205440000000000055e+03
1.206609999999999900e+03
1.207769999999999982e+03
1.208940000000000055e+03
1.210109999999999900e+03
1.211269999999999982e+03
1.212440000000000055e+03
1.213609999999999900e+03
1.214769999999999982e+03
1.215940000000000055e+03
1.217099999999999909e+03
1.218269999999999982e+03
1.219430000000000064e+03
1.220599999999999909e+03
1.221759999999999991e+03
1.222930000000000064e+03
1.224089999999999918e+03
1.225250000000000000e+03
1.226420000000000073e+03
1.227579999999999927e+03
1.228740000000000009e+03
1.229910000000000082e+03
1.231069999999999936e+03
1.232230000000000018e+03
1.233390000000000100e+03
1.234549999999999955e+03
1.235710000000000036e+03
1.236869999999999891e+03
1.238029999999999973e+03
1.239190000000000055e+03
1.240349999999999909e+03
1.241509999999999991e+03
1.242670000000000073e+03
1.243829999999999927e+03
1.244990000000000009e+03
1.246150000000000091e+03
1.247309999999999945e+03
1.248470000000000027e+03
1.249630000000000109e+03
1.250779999999999973e+03
1.251940000000000055e+03
1.253099999999999909e+03
1.254250000000000000e+03
1.255410000000000082e+03
1.256569999999999936e+03
1.257720000000000027e+03
1.258880000000000109e+03
1.260039999999999964e+03
1.261190000000000055e+03
1.262349999999999909e+03
1.263500000000000000e+03
1.264660000000000082e+03
1.265809999999999945e+03
1.266960000000000036e+03
1.268119999999999891e+03
1.269269999999999982e+03
1.270420000000000073e+03
1.271579999999999927e+03
1.272730000000000018e+03
1.273880000000000109e+03
1.275029999999999973e+03
1.276190000000000055e+03
1.277339999999999918e+03
1.278490000000000009e+03
1.279640000000000100e+03
1.280789999999999964e+03
1.281940000000000055e+03
1.283089999999999918e+03
1.284240000000000009e+03
1.285390000000000100e+03
1.286539999999999964e+03
1.287690000000000055e+03
1.288839999999999918e+03
1.289990000000000009e+03
1.291140000000000100e+03
1.292289999999999964e+03
1.293430000000000064e+03
1.294579999999999927e+03
1.295730000000000018e+03
1.296880000000000109e+03
1.298019999999999982e+03
1.299170000000000073e+03
1.300319999999999936e+03
1.301460000000000036e+03
1.302609999999999900e+03
1.303750000000000000e+03
1.304900000000000091e+03
1.306039999999999964e+03
1.307190000000000055e+03
1.308329999999999927e+03
1.309480000000000018e+03
1.310619999999999891e+03
1.311769999999999982e+03
1.312910000000000082e+03
1.314049999999999955e+03
1.315200000000000045e+03
1.316339999999999918e+03
1.317480000000000018e+03
1.318619999999999891e+03
1.319769999999999982e+03
1.320910000000000082e+03
1.322049999999999955e+03
1.323190000000000055e+03
1.324329999999999927e+03
1.325470000000000027e+03
1.326609999999999900e+03
1.327750000000000000e+03
1.328890000000000100e+03
1.330029999999999973e+03
1.331170000000000073e+03
1.332309999999999945e+03
1.333450000000000045e+03
1.334589999999999918e+03
1.335730000000000018e+03
1.336869999999999891e+03
1.338000000000000000e+03
1.339140000000000100e+03
1.340279999999999973e+03
1.341420000000000073e+03
1.342549999999999955e+03
1.343690000000000055e+03
1.344829999999999927e+03
1.345960000000000036e+03
1.347099999999999909e+03
1.348230000000000018e+03
1.349369999999999891e+03
1.350500000000000000e+03
1.351640000000000100e+03
1.352769999999999982e+03
1.353910000000000082e+03
1.355039999999999964e+03
1.356170000000000073e+03
1.357309999999999945e+03
1.358440000000000055e+03
1.359569999999999936e+03
1.360710000000000036e+03
1.361839999999999918e+03
1.362970000000000027e+03
1.364099999999999909e+03
1.365240000000000009e+03
1.366369999999999891e+03
1.367500000000000000e+03
1.368630000000000109e+03
1.369759999999999991e+03
1.370890000000000100e+03
1.372019999999999982e+03
1.373150000000000091e+03
1.374279999999999973e+03
1.375410000000000082e+03
1.376539999999999964e+03
1.377670000000000073e+03
1.378799999999999955e+03
1.379920000000000073e+03
1.381049999999999955e+03
1.382180000000000064e+03
1.383309999999999945e+03
1.384440000000000055e+03
1.385559999999999945e+03
1.386690000000000055e+03
1.387819999999999936e+03
1.388940000000000055e+03
1.390069999999999936e+03
1.391200000000000045e+03
1.392319999999999936e+03
1.393450000000000045e+03
1.394569999999999936e+03
1.395700000000000045e+03
1.396819999999999936e+03
1.397950000000000045e+03
1.399069999999999936e+03
1.400190000000000055e+03
1.401319999999999936e+03
1.402440000000000055e+03
1.403559999999999945e+03
1.404690000000000055e+03
1.405809999999999945e+03
1.406930000000000064e+03
1.408049999999999955e+03
1.409180000000000064e+03
1.410299999999999955e+03
1.411420000000000073e+03
1.412539999999999964e+03
1.413660000000000082e+03
1.414779999999999973e+03
1.415900000000000091e+03
1.417019999999999982e+03
1.418140000000000100e+03
1.419259999999999991e+03
1.420380000000000109e+03
1.421500000000000000e+03
1.422619999999999891e+03
1.423740000000000009e+03
1.424849999999999909e+03
1.425970000000000027e+03
1.427089999999999918e+03
1.428210000000000036e+03
1.429319999999999936e+03
1.430440000000000055e+03
1.431559999999999945e+03
1.432680000000000064e+03
1.433789999999999964e+03
1.434910000000000082e+03
1.436019999999999982e+03
1.437140000000000100e+03
1.438250000000000000e+03
1.439369999999999891e+03
1.440480000000000018e+03
1.441599999999999909e+03
1.442710000000000036e+03
1.443829999999999927e+03
1.444940000000000055e+03
1.446049999999999955e+03
1.447170000000000073e+03
1.448279999999999973e+03
1.449390000000000100e+03
1.450509999999999991e+03
1.451619999999999891e+03
1.452730000000000018e+03
1.453839999999999918e+03
1.454950000000000045e+03
1.456059999999999945e+03
1.457180000000000064e+03
1.458289999999999964e+03
1.459400000000000091e+03
1.460509999999999991e+03
1.461619999999999891e+03
1.462730000000000018e+03
1.463839999999999918e+03
1.464950000000000045e+03
1.466059999999999945e+03
1.467160000000000082e+03
1.468269999999999982e+03
1.469380000000000109e+03
1.470490000000000009e+03
1.471599999999999909e+03
1.472700000000000045e+03
1.473809999999999945e+03
1.474920000000000073e+03
1.476029999999999973e+03
1.477130000000000109e+03
1.478240000000000009e+03
1.479339999999999918e+03
1.480450000000000045e+03
1.481559999999999945e+03
1.482660000000000082e+03
1.483769999999999982e+03
1.484869999999999891e+03
1.485980000000000018e+03
1.487079999999999927e+03
1.488180000000000064e+03
1.489289999999999964e+03
1.490390000000000100e+03
1.491490000000000009e+03
1.492599999999999909e+03
1.493700000000000045e+03
1.494799999999999955e+03
1.495910000000000082e+03
1.497009999999999991e+03
1.498109999999999900e+03
1.499210000000000036e+03
1.500309999999999945e+03
1.501410000000000082e+03
1.502509999999999991e+03
1.503619999999999891e+03
1.504720000000000027e+03
1.505819999999999936e+03
1.506920000000000073e+03
1.508019999999999982e+03
1.509119999999999891e+03
1.510210000000000036e+03
1.511309999999999945e+03
1.512410000000000082e+03
1.513509999999999991e+03
1.514609999999999900e+03
1.515710000000000036e+03
1.516799999999999955e+03
1.517900000000000091e+03
1.519000000000000000e+03
1.520099999999999909e+03
1.521190000000000055e+03
1.522289999999999964e+03
1.523380000000000109e+03
1.524480000000000018e+03
1.525579999999999927e+03
1.526670000000000073e+03
1.527769999999999982e+03
1.528859999999999900e+03
1.529960000000000036e+03
1.531049999999999955e+03
1.532150000000000091e+03
1.533240000000000009e+03
1.534329999999999927e+03
1.535430000000000064e+03
1.536519999999999982e+03
1.537609999999999900e+03
1.538710000000000036e+03
1.539799999999999955e+03
1.540890000000000100e+03
1.541980000000000018e+03
1.543069999999999936e+03
1.544170000000000073e+03
1.545259999999999991e+03
1.546349999999999909e+03
1.547440000000000055e+03
1.548529999999999973e+03
1.549619999999999891e+03
1.550710000000000036e+03
1.551799999999999955e+03
1.552890000000000100e+03
1.553980000000000018e+03
1.555069999999999936e+03
1.556160000000000082e+03
1.557250000000000000e+03
1.558329999999999927e+03
1.559420000000000073e+03
1.560509999999999991e+03
1.561599999999999909e+03
1.562690000000000055e+03
1.563769999999999982e+03
1.564859999999999900e+03
1.565950000000000045e+03
1.567029999999999973e+03
1.568119999999999891e+03
1.569210000000000036e+03
1.570289999999999964e+03
1.571380000000000109e+03
1.572460000000000036e+03
1.573549999999999955e+03
1.574630000000000109e+03
1.575720000000000027e+03
1.576799999999999955e+03
1.577880000000000109e+03
1.578970000000000027e+03
1.580049999999999955e+03
1.581130000000000109e+03
1.582220000000000027e+03
1.583299999999999955e+03
1.584380000000000109e+03
1.585470000000000027e+03
1.586549999999999955e+03
1.587630000000000109e+03
1.588710000000000036e+03
1.589789999999999964e+03
1.590869999999999891e+03
1.591950000000000045e+03
1.593039999999999964e+03
1.594119999999999891e+03
1.595200000000000045e+03
1.596279999999999973e+03
1.597349999999999909e+03
1.598430000000000064e+03
1.599509999999999991e+03
