4.012500000000000000e+02
4.026039999999999850e+02
4.039599999999999795e+02
4.053140000000000214e+02
4.066680000000000064e+02
4.080219999999999914e+02
4.093750000000000000e+02
4.107280000000000086e+02
4.120819999999999936e+02
4.134340000000000259e+02
4.147860000000000014e+02
4.161379999999999768e+02
4.174900000000000091e+02
4.188410000000000082e+02
4.201920000000000073e+02
4.215419999999999732e+02
4.228919999999999959e+02
4.242420000000000186e+02
4.255919999999999845e+02
4.269420000000000073e+02
4.282909999999999968e+02
4.296390000000000100e+02
4.309879999999999995e+02
4.323360000000000127e+02
4.336840000000000259e+02
4.350310000000000059e+02
4.363779999999999859e+02
4.377250000000000227e+02
4.390720000000000027e+02
4.404169999999999732e+02
4.417640000000000100e+02
4.431089999999999804e+02
4.444540000000000077e+02
4.457989999999999782e+02
4.471429999999999723e+02
4.484879999999999995e+02
4.498319999999999936e+02
4.511759999999999877e+02
4.525179999999999723e+02
4.538609999999999900e+02
4.552040000000000077e+02
4.565459999999999923e+02
4.578879999999999768e+02
4.592300000000000182e+02
4.605710000000000264e+02
4.619119999999999777e+02
4.632529999999999859e+02
4.645930000000000177e+02
4.659340000000000259e+02
4.672730000000000246e+02
4.686129999999999995e+02
4.699519999999999982e+02
4.712909999999999968e+02
4.726290000000000191e+02
4.739669999999999845e+02
4.753050000000000068e+02
4.766429999999999723e+02
4.779800000000000182e+02
4.793159999999999741e+02
4.806530000000000200e+02
4.819889999999999759e+02
4.833260000000000218e+02
4.846610000000000014e+02
4.859959999999999809e+02
4.873310000000000173e+02
4.886659999999999968e+02
4.900000000000000000e+02
4.913349999999999795e+02
4.926680000000000064e+02
4.940020000000000095e+02
4.953349999999999795e+02
4.966669999999999732e+02
4.979990000000000236e+02
4.993319999999999936e+02
5.006639999999999873e+02
5.019959999999999809e+02
5.033269999999999982e+02
5.046569999999999823e+02
5.059879999999999995e+02
5.073179999999999836e+02
5.086480000000000246e+02
5.099769999999999754e+02
5.113079999999999927e+02
5.126359999999999673e+02
5.139650000000000318e+02
5.152930000000000064e+02
5.166209999999999809e+02
5.179489999999999554e+02
5.192759999999999536e+02
5.206029999999999518e+02
5.219299999999999500e+02
5.232569999999999482e+02
5.245829999999999700e+02
5.259089999999999918e+02
5.272340000000000373e+02
5.285589999999999691e+02
5.298840000000000146e+02
5.312089999999999463e+02
5.325339999999999918e+02
5.338569999999999709e+02
5.351810000000000400e+02
5.365049999999999955e+02
5.378269999999999982e+02
5.391499999999999773e+02
5.404719999999999800e+02
5.417949999999999591e+02
5.431159999999999854e+02
5.444379999999999882e+02
5.457590000000000146e+02
5.470800000000000409e+02
5.483999999999999773e+02
5.497200000000000273e+02
5.510410000000000537e+02
5.523600000000000136e+02
5.536789999999999736e+02
5.549980000000000473e+02
5.563170000000000073e+02
5.576349999999999909e+02
5.589529999999999745e+02
5.602709999999999582e+02
5.615879999999999654e+02
5.629049999999999727e+02
5.642219999999999800e+02
5.655380000000000109e+02
5.668550000000000182e+02
5.681699999999999591e+02
5.694859999999999900e+02
5.708010000000000446e+02
5.721159999999999854e+02
5.734310000000000400e+02
5.747450000000000045e+02
5.760589999999999691e+02
5.773730000000000473e+02
5.786870000000000118e+02
5.799990000000000236e+02
5.813120000000000118e+02
5.826250000000000000e+02
5.839360000000000355e+02
5.852490000000000236e+02
5.865599999999999454e+02
5.878709999999999809e+02
5.891820000000000164e+02
5.904930000000000518e+02
5.918029999999999973e+02
5.931119999999999663e+02
5.944230000000000018e+02
5.957319999999999709e+02
5.970399999999999636e+02
5.983500000000000227e+02
5.996580000000000155e+02
6.009660000000000082e+02
6.022740000000000009e+02
6.035819999999999936e+02
6.048890000000000100e+02
6.061960000000000264e+02
6.075019999999999527e+02
6.088079999999999927e+02
6.101140000000000327e+02
6.114199999999999591e+02
6.127250000000000227e+02
6.140309999999999491e+02
6.153350000000000364e+02
6.166390000000000100e+02
6.179429999999999836e+02
6.192469999999999573e+02
6.205510000000000446e+02
6.218540000000000418e+02
6.231570000000000391e+02
6.244600000000000364e+02
6.257619999999999436e+02
6.270639999999999645e+02
6.283659999999999854e+02
6.296660000000000537e+02
6.309679999999999609e+02
6.322680000000000291e+02
6.335689999999999600e+02
6.348690000000000282e+02
6.361689999999999827e+02
6.374679999999999609e+02
6.387670000000000528e+02
6.400670000000000073e+02
6.413650000000000091e+02
6.426630000000000109e+02
6.439619999999999891e+02
6.452590000000000146e+02
6.465570000000000164e+02
6.478540000000000418e+02
6.491499999999999773e+02
6.504470000000000027e+02
6.517430000000000518e+02
6.530389999999999873e+02
6.543339999999999463e+02
6.556290000000000191e+02
6.569239999999999782e+02
6.582190000000000509e+02
6.595130000000000337e+02
6.608079999999999927e+02
6.621019999999999754e+02
6.633940000000000055e+02
6.646879999999999882e+02
6.659809999999999945e+02
6.672730000000000246e+02
6.685650000000000546e+02
6.698569999999999709e+02
6.711490000000000009e+02
6.724400000000000546e+02
6.737309999999999945e+02
6.750220000000000482e+02
6.763129999999999882e+02
6.776019999999999754e+02
6.788930000000000291e+02
6.801820000000000164e+02
6.814710000000000036e+02
6.827599999999999909e+02
6.840480000000000018e+02
6.853360000000000127e+02
6.866240000000000236e+02
6.879120000000000346e+02
6.892000000000000455e+02
6.904869999999999663e+02
6.917730000000000246e+02
6.930599999999999454e+02
6.943460000000000036e+02
6.956319999999999482e+02
6.969170000000000300e+02
6.982019999999999982e+02
6.994869999999999663e+02
7.007720000000000482e+02
7.020570000000000164e+02
7.033410000000000082e+02
7.046250000000000000e+02
7.059070000000000391e+02
7.071910000000000309e+02
7.084740000000000464e+02
7.097559999999999718e+02
7.110380000000000109e+02
7.123210000000000264e+02
7.136019999999999754e+02
7.148830000000000382e+02
7.161639999999999873e+02
7.174450000000000500e+02
7.187250000000000227e+02
7.200059999999999718e+02
7.212849999999999682e+02
7.225650000000000546e+02
7.238440000000000509e+02
7.251230000000000473e+02
7.264020000000000437e+02
7.276799999999999500e+02
7.289579999999999700e+02
7.302359999999999900e+02
7.315130000000000337e+02
7.327910000000000537e+02
7.340679999999999836e+02
7.353440000000000509e+02
7.366200000000000045e+02
7.378959999999999582e+02
7.391720000000000255e+02
7.404470000000000027e+02
7.417229999999999563e+02
7.429969999999999573e+02
7.442709999999999582e+02
7.455449999999999591e+02
7.468200000000000500e+02
7.480929999999999609e+02
7.493669999999999618e+02
7.506390000000000100e+02
7.519120000000000346e+02
7.531849999999999454e+02
7.544560000000000173e+02
7.557290000000000418e+02
7.570000000000000000e+02
7.582709999999999582e+02
7.595420000000000300e+02
7.608129999999999882e+02
7.620829999999999700e+02
7.633529999999999518e+02
7.646230000000000473e+02
7.658920000000000528e+02
7.671609999999999445e+02
7.684299999999999500e+02
7.696979999999999791e+02
7.709660000000000082e+02
7.722340000000000373e+02
7.735030000000000427e+02
7.747699999999999818e+02
7.760370000000000346e+02
7.773029999999999973e+02
7.785700000000000500e+02
7.798360000000000127e+02
7.811019999999999754e+02
7.823680000000000518e+02
7.836319999999999482e+02
7.848970000000000482e+02
7.861620000000000346e+02
7.874270000000000209e+02
7.886910000000000309e+02
7.899539999999999509e+02
7.912179999999999609e+02
7.924809999999999945e+02
7.937440000000000282e+02
7.950069999999999482e+02
7.962690000000000055e+02
7.975309999999999491e+02
7.987930000000000064e+02
8.000539999999999736e+02
8.013160000000000309e+02
8.025760000000000218e+02
8.038360000000000127e+02
8.050969999999999800e+02
8.063569999999999709e+02
8.076159999999999854e+02
8.088759999999999764e+02
8.101349999999999909e+02
8.113940000000000055e+02
8.126520000000000437e+02
8.139099999999999682e+02
8.151680000000000064e+02
8.164260000000000446e+02
8.176829999999999927e+02
8.189400000000000546e+02
8.201970000000000027e+02
8.214529999999999745e+02
8.227089999999999463e+02
8.239650000000000318e+02
8.252210000000000036e+02
8.264769999999999754e+02
8.277319999999999709e+02
8.289859999999999900e+02
8.302400000000000091e+02
8.314950000000000045e+02
8.327480000000000473e+02
8.340019999999999527e+02
8.352559999999999718e+02
8.365080000000000382e+02
8.377609999999999673e+02
8.390130000000000337e+02
8.402659999999999627e+02
8.415170000000000528e+02
8.427680000000000291e+02
8.440199999999999818e+02
8.452709999999999582e+02
8.465209999999999582e+02
8.477720000000000482e+02
8.490220000000000482e+02
8.502709999999999582e+02
8.515209999999999582e+02
8.527699999999999818e+02
8.540180000000000291e+02
8.552680000000000291e+02
8.565159999999999627e+02
8.577640000000000100e+02
8.590119999999999436e+02
8.602590000000000146e+02
8.615059999999999718e+02
8.627530000000000427e+02
8.639990000000000236e+02
8.652459999999999809e+02
8.664919999999999618e+02
8.677369999999999663e+02
8.689819999999999709e+02
8.702279999999999518e+02
8.714729999999999563e+02
8.727169999999999845e+02
8.739619999999999891e+02
8.752050000000000409e+02
8.764489999999999554e+02
8.776920000000000073e+02
8.789360000000000355e+02
8.801779999999999973e+02
8.814210000000000491e+02
8.826630000000000109e+02
8.839049999999999727e+02
8.851470000000000482e+02
8.863880000000000337e+02
8.876290000000000191e+02
8.888700000000000045e+02
8.901100000000000136e+02
8.913500000000000227e+02
8.925910000000000082e+02
8.938300000000000409e+02
8.950700000000000500e+02
8.963089999999999691e+02
8.975470000000000255e+02
8.987859999999999445e+02
9.000230000000000246e+02
9.012609999999999673e+02
9.024990000000000236e+02
9.037369999999999663e+02
9.049740000000000464e+02
9.062100000000000364e+02
9.074470000000000027e+02
9.086829999999999927e+02
9.099189999999999827e+02
9.111549999999999727e+02
9.123899999999999864e+02
9.136250000000000000e+02
9.148600000000000136e+02
9.160940000000000509e+02
9.173289999999999509e+02
9.185620000000000118e+02
9.197960000000000491e+02
9.210289999999999964e+02
9.222619999999999436e+02
9.234950000000000045e+02
9.247269999999999754e+02
9.259600000000000364e+02
9.271920000000000073e+02
9.284230000000000018e+02
9.296539999999999964e+02
9.308849999999999909e+02
9.321159999999999854e+02
9.333469999999999800e+02
9.345769999999999982e+02
9.358070000000000164e+02
9.370359999999999445e+02
9.382659999999999627e+02
9.394950000000000045e+02
9.407240000000000464e+02
9.419519999999999982e+02
9.431799999999999500e+02
9.444080000000000155e+02
9.456349999999999909e+02
9.468630000000000564e+02
9.480910000000000082e+02
9.493170000000000073e+02
9.505439999999999827e+02
9.517690000000000055e+02
9.529959999999999809e+02
9.542210000000000036e+02
9.554470000000000027e+02
9.566720000000000255e+02
9.578959999999999582e+02
9.591209999999999809e+02
9.603450000000000273e+02
9.615689999999999600e+02
9.627930000000000064e+02
9.640170000000000528e+02
9.652400000000000091e+02
9.664619999999999891e+02
9.676849999999999454e+02
9.689070000000000391e+02
9.701290000000000191e+02
9.713509999999999991e+02
9.725720000000000027e+02
9.737930000000000064e+02
9.750140000000000100e+02
9.762340000000000373e+02
9.774550000000000409e+02
9.786749999999999545e+02
9.798949999999999818e+02
9.811140000000000327e+02
9.823329999999999700e+02
9.835520000000000209e+02
9.847699999999999818e+02
9.859890000000000327e+02
9.872069999999999936e+02
9.884249999999999545e+02
9.896420000000000528e+02
9.908600000000000136e+02
9.920760000000000218e+02
9.932930000000000064e+02
9.945090000000000146e+02
9.957250000000000227e+02
9.969410000000000309e+02
9.981570000000000391e+02
9.993719999999999573e+02
1.000590000000000032e+03
1.001799999999999955e+03
1.003019999999999982e+03
1.004230000000000018e+03
1.005440000000000055e+03
1.006659999999999968e+03
1.007870000000000005e+03
1.009080000000000041e+03
1.010299999999999955e+03
1.011509999999999991e+03
1.012720000000000027e+03
1.013929999999999950e+03
1.015139999999999986e+03
1.016360000000000014e+03
1.017570000000000050e+03
1.018779999999999973e+03
1.019990000000000009e+03
1.021200000000000045e+03
1.022409999999999968e+03
1.023620000000000005e+03
1.024829999999999927e+03
1.026039999999999964e+03
1.027240000000000009e+03
1.028450000000000045e+03
1.029660000000000082e+03
1.030869999999999891e+03
1.032079999999999927e+03
1.033279999999999973e+03
1.034490000000000009e+03
1.035700000000000045e+03
1.036910000000000082e+03
1.038109999999999900e+03
1.039319999999999936e+03
1.040519999999999982e+03
1.041730000000000018e+03
1.042930000000000064e+03
1.044140000000000100e+03
1.045339999999999918e+03
1.046549999999999955e+03
1.047750000000000000e+03
1.048960000000000036e+03
1.050160000000000082e+03
1.051359999999999900e+03
1.052569999999999936e+03
1.053769999999999982e+03
1.054970000000000027e+03
1.056170000000000073e+03
1.057369999999999891e+03
1.058579999999999927e+03
1.059779999999999973e+03
1.060980000000000018e+03
1.062180000000000064e+03
1.063380000000000109e+03
1.064579999999999927e+03
1.065779999999999973e+03
1.066980000000000018e+03
1.068180000000000064e+03
1.069380000000000109e+03
1.070579999999999927e+03
1.071779999999999973e+03
1.072970000000000027e+03
1.074170000000000073e+03
1.075369999999999891e+03
1.076569999999999936e+03
1.077759999999999991e+03
1.078960000000000036e+03
1.080160000000000082e+03
1.081349999999999909e+03
1.082549999999999955e+03
1.083750000000000000e+03
1.084940000000000055e+03
1.086140000000000100e+03
1.087329999999999927e+03
1.088529999999999973e+03
1.089720000000000027e+03
1.090920000000000073e+03
1.092109999999999900e+03
1.093299999999999955e+03
1.094500000000000000e+03
1.095690000000000055e+03
1.096880000000000109e+03
1.098069999999999936e+03
1.099269999999999982e+03
1.100460000000000036e+03
1.101650000000000091e+03
1.102839999999999918e+03
1.104029999999999973e+03
1.105220000000000027e+03
1.106410000000000082e+03
1.107599999999999909e+03
1.108789999999999964e+03
1.109980000000000018e+03
1.111170000000000073e+03
1.112359999999999900e+03
1.113549999999999955e+03
1.114740000000000009e+03
1.115930000000000064e+03
1.117119999999999891e+03
1.118309999999999945e+03
1.119490000000000009e+03
1.120680000000000064e+03
1.121869999999999891e+03
1.123049999999999955e+03
1.124240000000000009e+03
1.125430000000000064e+03
1.126609999999999900e+03
1.127799999999999955e+03
1.128980000000000018e+03
1.130170000000000073e+03
1.131349999999999909e+03
1.132539999999999964e+03
1.133720000000000027e+03
1.134910000000000082e+03
1.136089999999999918e+03
1.137279999999999973e+03
1.138460000000000036e+03
1.139640000000000100e+03
1.140819999999999936e+03
1.142009999999999991e+03
1.143190000000000055e+03
1.144369999999999891e+03
1.145549999999999955e+03
1.146730000000000018e+03
1.147920000000000073e+03
1.149099999999999909e+03
1.150279999999999973e+03
1.151460000000000036e+03
1.152640000000000100e+03
1.153819999999999936e+03
1.155000000000000000e+03
1.156180000000000064e+03
1.157349999999999909e+03
1.158529999999999973e+03
1.159710000000000036e+03
1.160890000000000100e+03
1.162069999999999936e+03
1.163250000000000000e+03
1.164420000000000073e+03
1.165599999999999909e+03
1.166779999999999973e+03
1.167950000000000045e+03
1.169130000000000109e+03
1.170309999999999945e+03
1.171480000000000018e+03
1.172660000000000082e+03
1.173829999999999927e+03
1.175009999999999991e+03
1.176180000000000064e+03
1.177359999999999900e+03
1.178529999999999973e+03
1.179700000000000045e+03
1.180880000000000109e+03
1.182049999999999955e+03
1.183220000000000027e+03
1.184400000000000091e+03
1.185569999999999936e+03
1.186740000000000009e+03
1.187910000000000082e+03
1.189089999999999918e+03
1.190259999999999991e+03
1.191430000000000064e+03
1.192599999999999909e+03
1.193769999999999982e+03
1.194940000000000055e+03
1.196109999999999900e+03
1.197279999999999973e+03
1.198450000000000045e+03
1.199619999999999891e+03
1.200789999999999964e+03
1.201960000000000036e+03
1.203119999999999891e+03
1.204289999999999964e+03
1.205460000000000036e+03
1.206630000000000109e+03
1.207799999999999955e+03
1.208960000000000036e+03
1.210130000000000109e+03
1.211299999999999955e+03
1.212460000000000036e+03
1.213630000000000109e+03
1.214799999999999955e+03
1.215960000000000036e+03
1.217130000000000109e+03
1.218289999999999964e+03
1.219460000000000036e+03
1.220619999999999891e+03
1.221779999999999973e+03
1.222950000000000045e+03
1.224109999999999900e+03
1.225279999999999973e+03
1.226440000000000055e+03
1.227599999999999909e+03
1.228769999999999982e+03
1.229930000000000064e+03
1.231089999999999918e+03
1.232250000000000000e+03
1.233410000000000082e+03
1.234569999999999936e+03
1.235740000000000009e+03
1.236900000000000091e+03
1.238059999999999945e+03
1.239220000000000027e+03
1.240380000000000109e+03
1.241539999999999964e+03
1.242700000000000045e+03
1.243859999999999900e+03
1.245009999999999991e+03
1.246170000000000073e+03
1.247329999999999927e+03
1.248490000000000009e+03
1.249650000000000091e+03
1.250809999999999945e+03
1.251960000000000036e+03
1.253119999999999891e+03
1.254279999999999973e+03
1.255430000000000064e+03
1.256589999999999918e+03
1.257750000000000000e+03
1.258900000000000091e+03
1.260059999999999945e+03
1.261210000000000036e+03
1.262369999999999891e+03
1.263519999999999982e+03
1.264680000000000064e+03
1.265829999999999927e+03
1.266990000000000009e+03
1.268140000000000100e+03
1.269289999999999964e+03
1.270450000000000045e+03
1.271599999999999909e+03
1.272750000000000000e+03
1.273900000000000091e+03
1.275059999999999945e+03
1.276210000000000036e+03
1.277359999999999900e+03
1.278509999999999991e+03
1.279660000000000082e+03
1.280809999999999945e+03
1.281960000000000036e+03
1.283109999999999900e+03
1.284259999999999991e+03
1.285410000000000082e+03
1.286559999999999945e+03
1.287710000000000036e+03
1.288859999999999900e+03
1.290009999999999991e+03
1.291160000000000082e+03
1.292309999999999945e+03
1.293460000000000036e+03
1.294599999999999909e+03
1.295750000000000000e+03
1.296900000000000091e+03
1.298039999999999964e+03
1.299190000000000055e+03
1.300339999999999918e+03
1.301480000000000018e+03
1.302630000000000109e+03
1.303779999999999973e+03
1.304920000000000073e+03
1.306069999999999936e+03
1.307210000000000036e+03
1.308359999999999900e+03
1.309500000000000000e+03
1.310640000000000100e+03
1.311789999999999964e+03
1.312930000000000064e+03
1.314069999999999936e+03
1.315220000000000027e+03
1.316359999999999900e+03
1.317500000000000000e+03
1.318650000000000091e+03
1.319789999999999964e+03
1.320930000000000064e+03
1.322069999999999936e+03
1.323210000000000036e+03
1.324349999999999909e+03
1.325490000000000009e+03
1.326630000000000109e+03
1.327769999999999982e+03
1.328910000000000082e+03
1.330049999999999955e+03
1.331190000000000055e+03
1.332329999999999927e+03
1.333470000000000027e+03
1.334609999999999900e+03
1.335750000000000000e+03
1.336890000000000100e+03
1.338019999999999982e+03
1.339160000000000082e+03
1.340299999999999955e+03
1.341440000000000055e+03
1.342569999999999936e+03
1.343710000000000036e+03
1.344849999999999909e+03
1.345980000000000018e+03
1.347119999999999891e+03
1.348250000000000000e+03
1.349390000000000100e+03
1.350519999999999982e+03
1.351660000000000082e+03
1.352789999999999964e+03
1.353930000000000064e+03
1.355059999999999945e+03
1.356200000000000045e+03
1.357329999999999927e+03
1.358460000000000036e+03
1.359599999999999909e+03
1.360730000000000018e+03
1.361859999999999900e+03
1.362990000000000009e+03
1.364130000000000109e+03
1.365259999999999991e+03
1.366390000000000100e+03
1.367519999999999982e+03
1.368650000000000091e+03
1.369779999999999973e+03
1.370910000000000082e+03
1.372039999999999964e+03
1.373170000000000073e+03
1.374299999999999955e+03
1.375430000000000064e+03
1.376559999999999945e+03
1.377690000000000055e+03
1.378819999999999936e+03
1.379950000000000045e+03
1.381069999999999936e+03
1.382200000000000045e+03
1.383329999999999927e+03
1.384460000000000036e+03
1.385579999999999927e+03
1.386710000000000036e+03
1.387839999999999918e+03
1.388960000000000036e+03
1.390089999999999918e+03
1.391220000000000027e+03
1.392339999999999918e+03
1.393470000000000027e+03
1.394589999999999918e+03
1.395720000000000027e+03
1.396839999999999918e+03
1.397970000000000027e+03
1.399089999999999918e+03
1.400210000000000036e+03
1.401339999999999918e+03
1.402460000000000036e+03
1.403579999999999927e+03
1.404710000000000036e+03
1.405829999999999927e+03
1.406950000000000045e+03
1.408069999999999936e+03
1.409200000000000045e+03
1.410319999999999936e+03
1.411440000000000055e+03
1.412559999999999945e+03
1.413680000000000064e+03
1.414799999999999955e+03
1.415920000000000073e+03
1.417039999999999964e+03
1.418160000000000082e+03
1.419279999999999973e+03
1.420400000000000091e+03
1.421519999999999982e+03
1.422640000000000100e+03
1.423759999999999991e+03
1.424880000000000109e+03
1.425990000000000009e+03
1.427109999999999900e+03
1.428230000000000018e+03
1.429349999999999909e+03
1.430460000000000036e+03
1.431579999999999927e+03
1.432700000000000045e+03
1.433809999999999945e+03
1.434930000000000064e+03
1.436039999999999964e+03
1.437160000000000082e+03
1.438279999999999973e+03
1.439390000000000100e+03
1.440509999999999991e+03
1.441619999999999891e+03
1.442730000000000018e+03
1.443849999999999909e+03
1.444960000000000036e+03
1.446079999999999927e+03
1.447190000000000055e+03
1.448299999999999955e+03
1.449420000000000073e+03
1.450529999999999973e+03
1.451640000000000100e+03
1.452750000000000000e+03
1.453859999999999900e+03
1.454980000000000018e+03
1.456089999999999918e+03
1.457200000000000045e+03
1.458309999999999945e+03
1.459420000000000073e+03
1.460529999999999973e+03
1.461640000000000100e+03
1.462750000000000000e+03
1.463859999999999900e+03
1.464970000000000027e+03
1.466079999999999927e+03
1.467190000000000055e+03
1.468289999999999964e+03
1.469400000000000091e+03
1.470509999999999991e+03
1.471619999999999891e+03
1.472730000000000018e+03
1.473829999999999927e+03
1.474940000000000055e+03
1.476049999999999955e+03
1.477150000000000091e+03
1.478259999999999991e+03
1.479369999999999891e+03
1.480470000000000027e+03
1.481579999999999927e+03
1.482680000000000064e+03
1.483789999999999964e+03
1.484890000000000100e+03
1.486000000000000000e+03
1.487099999999999909e+03
1.488210000000000036e+03
1.489309999999999945e+03
1.490410000000000082e+03
1.491519999999999982e+03
1.492619999999999891e+03
1.493720000000000027e+03
1.494819999999999936e+03
1.495930000000000064e+03
1.497029999999999973e+03
1.498130000000000109e+03
1.499230000000000018e+03
1.500329999999999927e+03
1.501430000000000064e+03
1.502539999999999964e+03
1.503640000000000100e+03
1.504740000000000009e+03
1.505839999999999918e+03
1.506940000000000055e+03
1.508039999999999964e+03
1.509140000000000100e+03
1.510240000000000009e+03
1.511329999999999927e+03
1.512430000000000064e+03
1.513529999999999973e+03
1.514630000000000109e+03
1.515730000000000018e+03
1.516829999999999927e+03
1.517920000000000073e+03
1.519019999999999982e+03
1.520119999999999891e+03
1.521210000000000036e+03
1.522309999999999945e+03
1.523410000000000082e+03
1.524500000000000000e+03
1.525599999999999909e+03
1.526690000000000055e+03
1.527789999999999964e+03
1.528880000000000109e+03
1.529980000000000018e+03
1.531069999999999936e+03
1.532170000000000073e+03
1.533259999999999991e+03
1.534349999999999909e+03
1.535450000000000045e+03
1.536539999999999964e+03
1.537630000000000109e+03
1.538730000000000018e+03
1.539819999999999936e+03
1.540910000000000082e+03
1.542000000000000000e+03
1.543099999999999909e+03
1.544190000000000055e+03
1.545279999999999973e+03
1.546369999999999891e+03
1.547460000000000036e+03
1.548549999999999955e+03
1.549640000000000100e+03
1.550730000000000018e+03
1.551819999999999936e+03
1.552910000000000082e+03
1.554000000000000000e+03
1.555089999999999918e+03
1.556180000000000064e+03
1.557269999999999982e+03
1.558349999999999909e+03
1.559440000000000055e+03
1.560529999999999973e+03
1.561619999999999891e+03
1.562710000000000036e+03
1.563789999999999964e+03
1.564880000000000109e+03
1.565970000000000027e+03
1.567049999999999955e+03
1.568140000000000100e+03
1.569230000000000018e+03
1.570309999999999945e+03
1.571400000000000091e+03
1.572480000000000018e+03
1.573569999999999936e+03
1.574650000000000091e+03
1.575740000000000009e+03
1.576819999999999936e+03
1.577910000000000082e+03
1.578990000000000009e+03
1.580069999999999936e+03
1.581160000000000082e+03
1.582240000000000009e+03
1.583319999999999936e+03
1.584400000000000091e+03
1.585490000000000009e+03
1.586569999999999936e+03
1.587650000000000091e+03
1.588730000000000018e+03
1.589809999999999945e+03
1.590890000000000100e+03
1.591980000000000018e+03
1.593059999999999945e+03
1.594140000000000100e+03
1.595220000000000027e+03
1.596299999999999955e+03
1.597380000000000109e+03
1.598460000000000036e+03
1.599529999999999973e+03
