4.012309999999999945e+02
4.025869999999999891e+02
4.039409999999999741e+02
4.052959999999999923e+02
4.066499999999999773e+02
4.080040000000000191e+02
4.093580000000000041e+02
4.107110000000000127e+02
4.120629999999999882e+02
4.134159999999999968e+02
4.147690000000000055e+02
4.161200000000000045e+02
4.174719999999999800e+02
4.188229999999999791e+02
4.201739999999999782e+02
4.215249999999999773e+02
4.228750000000000000e+02
4.242250000000000227e+02
4.255749999999999886e+02
4.269239999999999782e+02
4.282730000000000246e+02
4.296220000000000141e+02
4.309700000000000273e+02
4.323190000000000168e+02
4.336659999999999968e+02
4.350129999999999768e+02
4.363609999999999900e+02
4.377080000000000268e+02
4.390529999999999973e+02
4.403999999999999773e+02
4.417459999999999809e+02
4.430910000000000082e+02
4.444370000000000118e+02
4.457810000000000059e+02
4.471259999999999764e+02
4.484700000000000273e+02
4.498140000000000214e+02
4.511569999999999823e+02
4.525009999999999764e+02
4.538439999999999941e+02
4.551859999999999786e+02
4.565289999999999964e+02
4.578700000000000045e+02
4.592119999999999891e+02
4.605539999999999736e+02
4.618949999999999818e+02
4.632350000000000136e+02
4.645760000000000218e+02
4.659150000000000205e+02
4.672549999999999955e+02
4.685939999999999941e+02
4.699340000000000259e+02
4.712730000000000246e+02
4.726120000000000232e+02
4.739499999999999886e+02
4.752869999999999777e+02
4.766240000000000236e+02
4.779619999999999891e+02
4.792989999999999782e+02
4.806360000000000241e+02
4.819719999999999800e+02
4.833079999999999927e+02
4.846429999999999723e+02
4.859789999999999850e+02
4.873140000000000214e+02
4.886480000000000246e+02
4.899830000000000041e+02
4.913170000000000073e+02
4.926499999999999773e+02
4.939839999999999804e+02
4.953170000000000073e+02
4.966499999999999773e+02
4.979820000000000277e+02
4.993149999999999977e+02
5.006460000000000150e+02
5.019769999999999754e+02
5.033090000000000259e+02
5.046399999999999864e+02
5.059700000000000273e+02
5.073009999999999877e+02
5.086309999999999718e+02
5.099599999999999795e+02
5.112889999999999873e+02
5.126180000000000518e+02
5.139479999999999791e+02
5.152759999999999536e+02
5.166040000000000418e+02
5.179320000000000164e+02
5.192590000000000146e+02
5.205860000000000127e+02
5.219130000000000109e+02
5.232400000000000091e+02
5.245650000000000546e+02
5.258909999999999627e+02
5.272160000000000082e+02
5.285420000000000300e+02
5.298669999999999618e+02
5.311910000000000309e+02
5.325149999999999864e+02
5.338400000000000318e+02
5.351639999999999873e+02
5.364859999999999900e+02
5.378099999999999454e+02
5.391319999999999482e+02
5.404550000000000409e+02
5.417759999999999536e+02
5.430990000000000464e+02
5.444199999999999591e+02
5.457409999999999854e+02
5.470620000000000118e+02
5.483830000000000382e+02
5.497029999999999745e+02
5.510220000000000482e+02
5.523429999999999609e+02
5.536620000000000346e+02
5.549800000000000182e+02
5.562989999999999782e+02
5.576169999999999618e+02
5.589360000000000355e+02
5.602540000000000191e+02
5.615710000000000264e+02
5.628880000000000337e+02
5.642050000000000409e+02
5.655209999999999582e+02
5.668369999999999891e+02
5.681530000000000200e+02
5.694690000000000509e+02
5.707839999999999918e+02
5.720979999999999563e+02
5.734130000000000109e+02
5.747279999999999518e+02
5.760420000000000300e+02
5.773559999999999945e+02
5.786689999999999827e+02
5.799819999999999709e+02
5.812949999999999591e+02
5.826069999999999709e+02
5.839189999999999827e+02
5.852309999999999945e+02
5.865430000000000064e+02
5.878529999999999518e+02
5.891649999999999636e+02
5.904750000000000227e+02
5.917859999999999445e+02
5.930950000000000273e+02
5.944059999999999491e+02
5.957150000000000318e+02
5.970230000000000246e+02
5.983319999999999936e+02
5.996409999999999627e+02
6.009489999999999554e+02
6.022569999999999482e+02
6.035639999999999645e+02
6.048709999999999809e+02
6.061779999999999973e+02
6.074850000000000136e+02
6.087910000000000537e+02
6.100969999999999800e+02
6.114030000000000200e+02
6.127079999999999700e+02
6.140130000000000337e+02
6.153179999999999836e+02
6.166219999999999573e+02
6.179260000000000446e+02
6.192300000000000182e+02
6.205339999999999918e+02
6.218369999999999891e+02
6.231399999999999864e+02
6.244429999999999836e+02
6.257440000000000282e+02
6.270470000000000255e+02
6.283490000000000464e+02
6.296490000000000009e+02
6.309510000000000218e+02
6.322509999999999764e+02
6.335520000000000209e+02
6.348519999999999754e+02
6.361509999999999536e+02
6.374510000000000218e+02
6.387500000000000000e+02
6.400499999999999545e+02
6.413479999999999563e+02
6.426459999999999582e+02
6.439439999999999600e+02
6.452409999999999854e+02
6.465399999999999636e+02
6.478369999999999891e+02
6.491330000000000382e+02
6.504299999999999500e+02
6.517259999999999991e+02
6.530220000000000482e+02
6.543170000000000073e+02
6.556119999999999663e+02
6.569070000000000391e+02
6.582019999999999982e+02
6.594969999999999573e+02
6.607910000000000537e+02
6.620839999999999463e+02
6.633769999999999527e+02
6.646710000000000491e+02
6.659640000000000555e+02
6.672559999999999718e+02
6.685480000000000018e+02
6.698400000000000318e+02
6.711309999999999718e+02
6.724230000000000018e+02
6.737140000000000555e+02
6.750049999999999955e+02
6.762949999999999591e+02
6.775850000000000364e+02
6.788750000000000000e+02
6.801649999999999636e+02
6.814539999999999509e+02
6.827419999999999618e+02
6.840309999999999491e+02
6.853189999999999600e+02
6.866069999999999709e+02
6.878949999999999818e+02
6.891820000000000164e+02
6.904700000000000273e+02
6.917559999999999718e+02
6.930430000000000064e+02
6.943289999999999509e+02
6.956150000000000091e+02
6.968999999999999773e+02
6.981860000000000355e+02
6.994710000000000036e+02
7.007549999999999955e+02
7.020399999999999636e+02
7.033229999999999791e+02
7.046069999999999709e+02
7.058909999999999627e+02
7.071739999999999782e+02
7.084560000000000173e+02
7.097390000000000327e+02
7.110220000000000482e+02
7.123029999999999973e+02
7.135850000000000364e+02
7.148669999999999618e+02
7.161470000000000482e+02
7.174279999999999973e+02
7.187079999999999700e+02
7.199890000000000327e+02
7.212690000000000055e+02
7.225480000000000018e+02
7.238279999999999745e+02
7.251059999999999945e+02
7.263849999999999909e+02
7.276639999999999873e+02
7.289410000000000309e+02
7.302190000000000509e+02
7.314959999999999809e+02
7.327730000000000246e+02
7.340499999999999545e+02
7.353269999999999982e+02
7.366040000000000418e+02
7.378799999999999955e+02
7.391549999999999727e+02
7.404299999999999500e+02
7.417050000000000409e+02
7.429800000000000182e+02
7.442540000000000191e+02
7.455289999999999964e+02
7.468029999999999973e+02
7.480769999999999982e+02
7.493490000000000464e+02
7.506219999999999573e+02
7.518949999999999818e+02
7.531670000000000300e+02
7.544400000000000546e+02
7.557110000000000127e+02
7.569829999999999472e+02
7.582549999999999955e+02
7.595249999999999773e+02
7.607949999999999591e+02
7.620660000000000309e+02
7.633360000000000127e+02
7.646059999999999945e+02
7.658750000000000000e+02
7.671440000000000055e+02
7.684120000000000346e+02
7.696820000000000164e+02
7.709500000000000455e+02
7.722179999999999609e+02
7.734850000000000136e+02
7.747519999999999527e+02
7.760190000000000055e+02
7.772859999999999445e+02
7.785520000000000209e+02
7.798189999999999600e+02
7.810839999999999463e+02
7.823500000000000227e+02
7.836150000000000091e+02
7.848809999999999718e+02
7.861449999999999818e+02
7.874099999999999682e+02
7.886730000000000018e+02
7.899370000000000118e+02
7.912010000000000218e+02
7.924650000000000318e+02
7.937269999999999754e+02
7.949900000000000091e+02
7.962519999999999527e+02
7.975140000000000100e+02
7.987759999999999536e+02
8.000370000000000346e+02
8.012980000000000018e+02
8.025599999999999454e+02
8.038200000000000500e+02
8.050800000000000409e+02
8.063400000000000318e+02
8.076000000000000227e+02
8.088590000000000373e+02
8.101190000000000282e+02
8.113769999999999527e+02
8.126359999999999673e+02
8.138940000000000055e+02
8.151520000000000437e+02
8.164089999999999918e+02
8.176660000000000537e+02
8.189230000000000018e+02
8.201799999999999500e+02
8.214370000000000118e+02
8.226929999999999836e+02
8.239489999999999554e+02
8.252050000000000409e+02
8.264600000000000364e+02
8.277140000000000555e+02
8.289690000000000509e+02
8.302240000000000464e+02
8.314779999999999518e+02
8.327319999999999709e+02
8.339859999999999900e+02
8.352380000000000564e+02
8.364919999999999618e+02
8.377440000000000282e+02
8.389969999999999573e+02
8.402480000000000473e+02
8.415009999999999764e+02
8.427519999999999527e+02
8.440030000000000427e+02
8.452540000000000191e+02
8.465040000000000191e+02
8.477549999999999955e+02
8.490049999999999955e+02
8.502549999999999955e+02
8.515040000000000191e+02
8.527530000000000427e+02
8.540019999999999527e+02
8.552500000000000000e+02
8.564990000000000236e+02
8.577469999999999573e+02
8.589950000000000045e+02
8.602419999999999618e+02
8.614890000000000327e+02
8.627359999999999900e+02
8.639829999999999472e+02
8.652290000000000418e+02
8.664750000000000227e+02
8.677210000000000036e+02
8.689660000000000082e+02
8.702119999999999891e+02
8.714560000000000173e+02
8.727010000000000218e+02
8.739439999999999600e+02
8.751889999999999645e+02
8.764329999999999927e+02
8.776760000000000446e+02
8.789180000000000064e+02
8.801620000000000346e+02
8.814039999999999964e+02
8.826470000000000482e+02
8.838880000000000337e+02
8.851299999999999955e+02
8.863719999999999573e+02
8.876130000000000564e+02
8.888529999999999518e+02
8.900940000000000509e+02
8.913339999999999463e+02
8.925739999999999554e+02
8.938129999999999882e+02
8.950520000000000209e+02
8.962920000000000300e+02
8.975299999999999727e+02
8.987690000000000055e+02
9.000069999999999482e+02
9.012450000000000045e+02
9.024829999999999472e+02
9.037200000000000273e+02
9.049569999999999936e+02
9.061939999999999600e+02
9.074310000000000400e+02
9.086670000000000300e+02
9.099020000000000437e+02
9.111380000000000337e+02
9.123730000000000473e+02
9.136090000000000373e+02
9.148429999999999609e+02
9.160779999999999745e+02
9.173120000000000118e+02
9.185460000000000491e+02
9.197789999999999964e+02
9.210119999999999436e+02
9.222459999999999809e+02
9.234790000000000418e+02
9.247110000000000127e+02
9.259429999999999836e+02
9.271749999999999545e+02
9.284070000000000391e+02
9.296380000000000337e+02
9.308690000000000282e+02
9.321000000000000227e+02
9.333300000000000409e+02
9.345610000000000355e+02
9.357910000000000537e+02
9.370199999999999818e+02
9.382500000000000000e+02
9.394790000000000418e+02
9.407069999999999936e+02
9.419360000000000355e+02
9.431639999999999873e+02
9.443920000000000528e+02
9.456190000000000282e+02
9.468469999999999800e+02
9.480739999999999554e+02
9.493010000000000446e+02
9.505280000000000200e+02
9.517530000000000427e+02
9.529800000000000182e+02
9.542050000000000409e+02
9.554299999999999500e+02
9.566559999999999491e+02
9.578799999999999955e+02
9.591040000000000418e+02
9.603289999999999509e+02
9.615529999999999973e+02
9.627759999999999536e+02
9.640000000000000000e+02
9.652229999999999563e+02
9.664460000000000264e+02
9.676689999999999827e+02
9.688909999999999627e+02
9.701130000000000564e+02
9.713350000000000364e+02
9.725560000000000400e+02
9.737770000000000437e+02
9.749969999999999573e+02
9.762179999999999609e+02
9.774389999999999645e+02
9.786589999999999918e+02
9.798780000000000427e+02
9.810979999999999563e+02
9.823170000000000073e+02
9.835349999999999682e+02
9.847540000000000191e+02
9.859729999999999563e+02
9.871910000000000309e+02
9.884089999999999918e+02
9.896259999999999764e+02
9.908440000000000509e+02
9.920599999999999454e+02
9.932759999999999536e+02
9.944930000000000518e+02
9.957089999999999463e+02
9.969249999999999545e+02
9.981399999999999864e+02
9.993559999999999945e+02
1.000570000000000050e+03
1.001789999999999964e+03
1.003000000000000000e+03
1.004210000000000036e+03
1.005429999999999950e+03
1.006639999999999986e+03
1.007850000000000023e+03
1.009070000000000050e+03
1.010279999999999973e+03
1.011490000000000009e+03
1.012710000000000036e+03
1.013919999999999959e+03
1.015129999999999995e+03
1.016340000000000032e+03
1.017549999999999955e+03
1.018759999999999991e+03
1.019970000000000027e+03
1.021179999999999950e+03
1.022389999999999986e+03
1.023600000000000023e+03
1.024809999999999945e+03
1.026019999999999982e+03
1.027230000000000018e+03
1.028440000000000055e+03
1.029650000000000091e+03
1.030849999999999909e+03
1.032059999999999945e+03
1.033269999999999982e+03
1.034480000000000018e+03
1.035680000000000064e+03
1.036890000000000100e+03
1.038099999999999909e+03
1.039299999999999955e+03
1.040509999999999991e+03
1.041710000000000036e+03
1.042920000000000073e+03
1.044119999999999891e+03
1.045329999999999927e+03
1.046529999999999973e+03
1.047740000000000009e+03
1.048940000000000055e+03
1.050140000000000100e+03
1.051349999999999909e+03
1.052549999999999955e+03
1.053750000000000000e+03
1.054960000000000036e+03
1.056160000000000082e+03
1.057359999999999900e+03
1.058559999999999945e+03
1.059759999999999991e+03
1.060960000000000036e+03
1.062160000000000082e+03
1.063359999999999900e+03
1.064559999999999945e+03
1.065759999999999991e+03
1.066960000000000036e+03
1.068160000000000082e+03
1.069359999999999900e+03
1.070559999999999945e+03
1.071759999999999991e+03
1.072960000000000036e+03
1.074160000000000082e+03
1.075349999999999909e+03
1.076549999999999955e+03
1.077750000000000000e+03
1.078950000000000045e+03
1.080140000000000100e+03
1.081339999999999918e+03
1.082529999999999973e+03
1.083730000000000018e+03
1.084930000000000064e+03
1.086119999999999891e+03
1.087319999999999936e+03
1.088509999999999991e+03
1.089710000000000036e+03
1.090900000000000091e+03
1.092089999999999918e+03
1.093289999999999964e+03
1.094480000000000018e+03
1.095670000000000073e+03
1.096869999999999891e+03
1.098059999999999945e+03
1.099250000000000000e+03
1.100440000000000055e+03
1.101630000000000109e+03
1.102829999999999927e+03
1.104019999999999982e+03
1.105210000000000036e+03
1.106400000000000091e+03
1.107589999999999918e+03
1.108779999999999973e+03
1.109970000000000027e+03
1.111160000000000082e+03
1.112349999999999909e+03
1.113539999999999964e+03
1.114730000000000018e+03
1.115910000000000082e+03
1.117099999999999909e+03
1.118289999999999964e+03
1.119480000000000018e+03
1.120670000000000073e+03
1.121849999999999909e+03
1.123039999999999964e+03
1.124230000000000018e+03
1.125410000000000082e+03
1.126599999999999909e+03
1.127779999999999973e+03
1.128970000000000027e+03
1.130150000000000091e+03
1.131339999999999918e+03
1.132519999999999982e+03
1.133710000000000036e+03
1.134890000000000100e+03
1.136079999999999927e+03
1.137259999999999991e+03
1.138440000000000055e+03
1.139630000000000109e+03
1.140809999999999945e+03
1.141990000000000009e+03
1.143170000000000073e+03
1.144359999999999900e+03
1.145539999999999964e+03
1.146720000000000027e+03
1.147900000000000091e+03
1.149079999999999927e+03
1.150259999999999991e+03
1.151440000000000055e+03
1.152619999999999891e+03
1.153799999999999955e+03
1.154980000000000018e+03
1.156160000000000082e+03
1.157339999999999918e+03
1.158519999999999982e+03
1.159700000000000045e+03
1.160869999999999891e+03
1.162049999999999955e+03
1.163230000000000018e+03
1.164410000000000082e+03
1.165579999999999927e+03
1.166759999999999991e+03
1.167940000000000055e+03
1.169109999999999900e+03
1.170289999999999964e+03
1.171470000000000027e+03
1.172640000000000100e+03
1.173819999999999936e+03
1.174990000000000009e+03
1.176170000000000073e+03
1.177339999999999918e+03
1.178509999999999991e+03
1.179690000000000055e+03
1.180859999999999900e+03
1.182029999999999973e+03
1.183210000000000036e+03
1.184380000000000109e+03
1.185549999999999955e+03
1.186730000000000018e+03
1.187900000000000091e+03
1.189069999999999936e+03
1.190240000000000009e+03
1.191410000000000082e+03
1.192579999999999927e+03
1.193750000000000000e+03
1.194920000000000073e+03
1.196089999999999918e+03
1.197259999999999991e+03
1.198430000000000064e+03
1.199599999999999909e+03
1.200769999999999982e+03
1.201940000000000055e+03
1.203109999999999900e+03
1.204279999999999973e+03
1.205450000000000045e+03
1.206609999999999900e+03
1.207779999999999973e+03
1.208950000000000045e+03
1.210109999999999900e+03
1.211279999999999973e+03
1.212450000000000045e+03
1.213609999999999900e+03
1.214779999999999973e+03
1.215950000000000045e+03
1.217109999999999900e+03
1.218279999999999973e+03
1.219440000000000055e+03
1.220599999999999909e+03
1.221769999999999982e+03
1.222930000000000064e+03
1.224099999999999909e+03
1.225259999999999991e+03
1.226420000000000073e+03
1.227589999999999918e+03
1.228750000000000000e+03
1.229910000000000082e+03
1.231069999999999936e+03
1.232240000000000009e+03
1.233400000000000091e+03
1.234559999999999945e+03
1.235720000000000027e+03
1.236880000000000109e+03
1.238039999999999964e+03
1.239200000000000045e+03
1.240359999999999900e+03
1.241519999999999982e+03
1.242680000000000064e+03
1.243839999999999918e+03
1.245000000000000000e+03
1.246160000000000082e+03
1.247319999999999936e+03
1.248470000000000027e+03
1.249630000000000109e+03
1.250789999999999964e+03
1.251950000000000045e+03
1.253099999999999909e+03
1.254259999999999991e+03
1.255420000000000073e+03
1.256569999999999936e+03
1.257730000000000018e+03
1.258890000000000100e+03
1.260039999999999964e+03
1.261200000000000045e+03
1.262349999999999909e+03
1.263509999999999991e+03
1.264660000000000082e+03
1.265819999999999936e+03
1.266970000000000027e+03
1.268119999999999891e+03
1.269279999999999973e+03
1.270430000000000064e+03
1.271579999999999927e+03
1.272740000000000009e+03
1.273890000000000100e+03
1.275039999999999964e+03
1.276190000000000055e+03
1.277339999999999918e+03
1.278500000000000000e+03
1.279650000000000091e+03
1.280799999999999955e+03
1.281950000000000045e+03
1.283099999999999909e+03
1.284250000000000000e+03
1.285400000000000091e+03
1.286549999999999955e+03
1.287700000000000045e+03
1.288849999999999909e+03
1.290000000000000000e+03
1.291140000000000100e+03
1.292289999999999964e+03
1.293440000000000055e+03
1.294589999999999918e+03
1.295730000000000018e+03
1.296880000000000109e+03
1.298029999999999973e+03
1.299180000000000064e+03
1.300319999999999936e+03
1.301470000000000027e+03
1.302609999999999900e+03
1.303759999999999991e+03
1.304910000000000082e+03
1.306049999999999955e+03
1.307200000000000045e+03
1.308339999999999918e+03
1.309480000000000018e+03
1.310630000000000109e+03
1.311769999999999982e+03
1.312920000000000073e+03
1.314059999999999945e+03
1.315200000000000045e+03
1.316349999999999909e+03
1.317490000000000009e+03
1.318630000000000109e+03
1.319769999999999982e+03
1.320910000000000082e+03
1.322059999999999945e+03
1.323200000000000045e+03
1.324339999999999918e+03
1.325480000000000018e+03
1.326619999999999891e+03
1.327759999999999991e+03
1.328900000000000091e+03
1.330039999999999964e+03
1.331180000000000064e+03
1.332319999999999936e+03
1.333460000000000036e+03
1.334589999999999918e+03
1.335730000000000018e+03
1.336869999999999891e+03
1.338009999999999991e+03
1.339150000000000091e+03
1.340279999999999973e+03
1.341420000000000073e+03
1.342559999999999945e+03
1.343690000000000055e+03
1.344829999999999927e+03
1.345970000000000027e+03
1.347099999999999909e+03
1.348240000000000009e+03
1.349369999999999891e+03
1.350509999999999991e+03
1.351640000000000100e+03
1.352779999999999973e+03
1.353910000000000082e+03
1.355049999999999955e+03
1.356180000000000064e+03
1.357309999999999945e+03
1.358450000000000045e+03
1.359579999999999927e+03
1.360710000000000036e+03
1.361849999999999909e+03
1.362980000000000018e+03
1.364109999999999900e+03
1.365240000000000009e+03
1.366369999999999891e+03
1.367500000000000000e+03
1.368640000000000100e+03
1.369769999999999982e+03
1.370900000000000091e+03
1.372029999999999973e+03
1.373160000000000082e+03
1.374289999999999964e+03
1.375420000000000073e+03
1.376549999999999955e+03
1.377670000000000073e+03
1.378799999999999955e+03
1.379930000000000064e+03
1.381059999999999945e+03
1.382190000000000055e+03
1.383309999999999945e+03
1.384440000000000055e+03
1.385569999999999936e+03
1.386700000000000045e+03
1.387819999999999936e+03
1.388950000000000045e+03
1.390079999999999927e+03
1.391200000000000045e+03
1.392329999999999927e+03
1.393450000000000045e+03
1.394579999999999927e+03
1.395700000000000045e+03
1.396829999999999927e+03
1.397950000000000045e+03
1.399079999999999927e+03
1.400200000000000045e+03
1.401319999999999936e+03
1.402450000000000045e+03
1.403569999999999936e+03
1.404690000000000055e+03
1.405819999999999936e+03
1.406940000000000055e+03
1.408059999999999945e+03
1.409180000000000064e+03
1.410299999999999955e+03
1.411420000000000073e+03
1.412549999999999955e+03
1.413670000000000073e+03
1.414789999999999964e+03
1.415910000000000082e+03
1.417029999999999973e+03
1.418150000000000091e+03
1.419269999999999982e+03
1.420390000000000100e+03
1.421509999999999991e+03
1.422619999999999891e+03
1.423740000000000009e+03
1.424859999999999900e+03
1.425980000000000018e+03
1.427099999999999909e+03
1.428210000000000036e+03
1.429329999999999927e+03
1.430450000000000045e+03
1.431569999999999936e+03
1.432680000000000064e+03
1.433799999999999955e+03
1.434910000000000082e+03
1.436029999999999973e+03
1.437150000000000091e+03
1.438259999999999991e+03
1.439380000000000109e+03
1.440490000000000009e+03
1.441609999999999900e+03
1.442720000000000027e+03
1.443829999999999927e+03
1.444950000000000045e+03
1.446059999999999945e+03
1.447170000000000073e+03
1.448289999999999964e+03
1.449400000000000091e+03
1.450509999999999991e+03
1.451619999999999891e+03
1.452740000000000009e+03
1.453849999999999909e+03
1.454960000000000036e+03
1.456069999999999936e+03
1.457180000000000064e+03
1.458289999999999964e+03
1.459400000000000091e+03
1.460509999999999991e+03
1.461619999999999891e+03
1.462730000000000018e+03
1.463839999999999918e+03
1.464950000000000045e+03
1.466059999999999945e+03
1.467170000000000073e+03
1.468279999999999973e+03
1.469390000000000100e+03
1.470500000000000000e+03
1.471599999999999909e+03
1.472710000000000036e+03
1.473819999999999936e+03
1.474930000000000064e+03
1.476029999999999973e+03
1.477140000000000100e+03
1.478240000000000009e+03
1.479349999999999909e+03
1.480460000000000036e+03
1.481559999999999945e+03
1.482670000000000073e+03
1.483769999999999982e+03
1.484880000000000109e+03
1.485980000000000018e+03
1.487089999999999918e+03
1.488190000000000055e+03
1.489289999999999964e+03
1.490400000000000091e+03
1.491500000000000000e+03
1.492599999999999909e+03
1.493710000000000036e+03
1.494809999999999945e+03
1.495910000000000082e+03
1.497009999999999991e+03
1.498119999999999891e+03
1.499220000000000027e+03
1.500319999999999936e+03
1.501420000000000073e+03
1.502519999999999982e+03
1.503619999999999891e+03
1.504720000000000027e+03
1.505819999999999936e+03
1.506920000000000073e+03
1.508019999999999982e+03
1.509119999999999891e+03
1.510220000000000027e+03
1.511319999999999936e+03
1.512420000000000073e+03
1.513519999999999982e+03
1.514609999999999900e+03
1.515710000000000036e+03
1.516809999999999945e+03
1.517910000000000082e+03
1.519009999999999991e+03
1.520099999999999909e+03
1.521200000000000045e+03
1.522299999999999955e+03
1.523390000000000100e+03
1.524490000000000009e+03
1.525579999999999927e+03
1.526680000000000064e+03
1.527769999999999982e+03
1.528869999999999891e+03
1.529960000000000036e+03
1.531059999999999945e+03
1.532150000000000091e+03
1.533250000000000000e+03
1.534339999999999918e+03
1.535430000000000064e+03
1.536529999999999973e+03
1.537619999999999891e+03
1.538710000000000036e+03
1.539799999999999955e+03
1.540900000000000091e+03
1.541990000000000009e+03
1.543079999999999927e+03
1.544170000000000073e+03
1.545259999999999991e+03
1.546359999999999900e+03
1.547450000000000045e+03
1.548539999999999964e+03
1.549630000000000109e+03
1.550720000000000027e+03
1.551809999999999945e+03
1.552900000000000091e+03
1.553990000000000009e+03
1.555069999999999936e+03
1.556160000000000082e+03
1.557250000000000000e+03
1.558339999999999918e+03
1.559430000000000064e+03
1.560519999999999982e+03
1.561599999999999909e+03
1.562690000000000055e+03
1.563779999999999973e+03
1.564869999999999891e+03
1.565950000000000045e+03
1.567039999999999964e+03
1.568119999999999891e+03
1.569210000000000036e+03
1.570299999999999955e+03
1.571380000000000109e+03
1.572470000000000027e+03
1.573549999999999955e+03
1.574640000000000100e+03
1.575720000000000027e+03
1.576809999999999945e+03
1.577890000000000100e+03
1.578970000000000027e+03
1.580059999999999945e+03
1.581140000000000100e+03
1.582220000000000027e+03
1.583309999999999945e+03
1.584390000000000100e+03
1.585470000000000027e+03
1.586549999999999955e+03
1.587640000000000100e+03
1.588720000000000027e+03
1.589799999999999955e+03
1.590880000000000109e+03
1.591960000000000036e+03
1.593039999999999964e+03
1.594119999999999891e+03
1.595200000000000045e+03
1.596279999999999973e+03
1.597359999999999900e+03
1.598440000000000055e+03
1.599519999999999982e+03
