4.012559999999999718e+02
4.026120000000000232e+02
4.039660000000000082e+02
4.053199999999999932e+02
4.066750000000000114e+02
4.080289999999999964e+02
4.093820000000000050e+02
4.107359999999999900e+02
4.120880000000000223e+02
4.134409999999999741e+02
4.147930000000000064e+02
4.161460000000000150e+02
4.174970000000000141e+02
4.188480000000000132e+02
4.201990000000000123e+02
4.215500000000000114e+02
4.228999999999999773e+02
4.242500000000000000e+02
4.256000000000000227e+02
4.269490000000000123e+02
4.282980000000000018e+02
4.296469999999999914e+02
4.309950000000000045e+02
4.323430000000000177e+02
4.336909999999999741e+02
4.350380000000000109e+02
4.363849999999999909e+02
4.377320000000000277e+02
4.390779999999999745e+02
4.404250000000000114e+02
4.417699999999999818e+02
4.431159999999999854e+02
4.444610000000000127e+02
4.458059999999999832e+02
4.471510000000000105e+02
4.484950000000000045e+02
4.498389999999999986e+02
4.511820000000000164e+02
4.525249999999999773e+02
4.538679999999999950e+02
4.552110000000000127e+02
4.565539999999999736e+02
4.578949999999999818e+02
4.592370000000000232e+02
4.605779999999999745e+02
4.619200000000000159e+02
4.632599999999999909e+02
4.646000000000000227e+02
4.659399999999999977e+02
4.672799999999999727e+02
4.686190000000000282e+02
4.699580000000000268e+02
4.712970000000000255e+02
4.726360000000000241e+02
4.739739999999999895e+02
4.753120000000000118e+02
4.766490000000000009e+02
4.779870000000000232e+02
4.793240000000000123e+02
4.806600000000000250e+02
4.819970000000000141e+02
4.833319999999999936e+02
4.846680000000000064e+02
4.860029999999999859e+02
4.873380000000000223e+02
4.886730000000000018e+02
4.900070000000000050e+02
4.913410000000000082e+02
4.926750000000000114e+02
4.940079999999999814e+02
4.953410000000000082e+02
4.966750000000000114e+02
4.980070000000000050e+02
4.993389999999999986e+02
5.006709999999999923e+02
5.020020000000000095e+02
5.033340000000000032e+02
5.046639999999999873e+02
5.059950000000000045e+02
5.073249999999999886e+02
5.086549999999999727e+02
5.099850000000000136e+02
5.113140000000000214e+02
5.126430000000000291e+02
5.139710000000000036e+02
5.152999999999999545e+02
5.166280000000000427e+02
5.179550000000000409e+02
5.192830000000000155e+02
5.206100000000000136e+02
5.219370000000000118e+02
5.232630000000000337e+02
5.245890000000000555e+02
5.259149999999999636e+02
5.272409999999999854e+02
5.285660000000000309e+02
5.298920000000000528e+02
5.312150000000000318e+02
5.325399999999999636e+02
5.338640000000000327e+02
5.351870000000000118e+02
5.365109999999999673e+02
5.378339999999999463e+02
5.391570000000000391e+02
5.404790000000000418e+02
5.418010000000000446e+02
5.431230000000000473e+02
5.444439999999999600e+02
5.457659999999999627e+02
5.470860000000000127e+02
5.484070000000000391e+02
5.497269999999999754e+02
5.510470000000000255e+02
5.523659999999999854e+02
5.536860000000000355e+02
5.550049999999999955e+02
5.563229999999999791e+02
5.576420000000000528e+02
5.589589999999999463e+02
5.602780000000000200e+02
5.615950000000000273e+02
5.629120000000000346e+02
5.642290000000000418e+02
5.655460000000000491e+02
5.668619999999999663e+02
5.681779999999999973e+02
5.694930000000000518e+02
5.708079999999999927e+02
5.721230000000000473e+02
5.734379999999999882e+02
5.747519999999999527e+02
5.760660000000000309e+02
5.773790000000000191e+02
5.786929999999999836e+02
5.800059999999999718e+02
5.813179999999999836e+02
5.826309999999999718e+02
5.839439999999999600e+02
5.852549999999999955e+02
5.865670000000000073e+02
5.878780000000000427e+02
5.891889999999999645e+02
5.904990000000000236e+02
5.918099999999999454e+02
5.931200000000000045e+02
5.944289999999999736e+02
5.957390000000000327e+02
5.970480000000000018e+02
5.983559999999999945e+02
5.996639999999999873e+02
6.009729999999999563e+02
6.022809999999999491e+02
6.035879999999999654e+02
6.048949999999999818e+02
6.062019999999999982e+02
6.075090000000000146e+02
6.088150000000000546e+02
6.101209999999999809e+02
6.114260000000000446e+02
6.127319999999999709e+02
6.140370000000000346e+02
6.153419999999999845e+02
6.166459999999999582e+02
6.179510000000000218e+02
6.192549999999999955e+02
6.205570000000000164e+02
6.218609999999999900e+02
6.231639999999999873e+02
6.244660000000000082e+02
6.257680000000000291e+02
6.270710000000000264e+02
6.283719999999999573e+02
6.296739999999999782e+02
6.309740000000000464e+02
6.322749999999999773e+02
6.335750000000000455e+02
6.348759999999999764e+02
6.361749999999999545e+02
6.374759999999999991e+02
6.387740000000000009e+02
6.400729999999999791e+02
6.413719999999999573e+02
6.426699999999999591e+02
6.439679999999999609e+02
6.452659999999999627e+02
6.465629999999999882e+02
6.478609999999999900e+02
6.491570000000000391e+02
6.504539999999999509e+02
6.517500000000000000e+02
6.530460000000000491e+02
6.543410000000000082e+02
6.556359999999999673e+02
6.569310000000000400e+02
6.582259999999999991e+02
6.595199999999999818e+02
6.608139999999999645e+02
6.621079999999999472e+02
6.634009999999999536e+02
6.646950000000000500e+02
6.659869999999999663e+02
6.672799999999999727e+02
6.685720000000000027e+02
6.698640000000000327e+02
6.711549999999999727e+02
6.724470000000000027e+02
6.737380000000000564e+02
6.750289999999999964e+02
6.763189999999999600e+02
6.776090000000000373e+02
6.788990000000000009e+02
6.801879999999999882e+02
6.814779999999999518e+02
6.827659999999999627e+02
6.840549999999999500e+02
6.853429999999999609e+02
6.866309999999999718e+02
6.879189999999999827e+02
6.892060000000000173e+02
6.904930000000000518e+02
6.917789999999999964e+02
6.930670000000000073e+02
6.943529999999999518e+02
6.956390000000000100e+02
6.969239999999999782e+02
6.982089999999999463e+02
6.994940000000000282e+02
7.007780000000000200e+02
7.020629999999999882e+02
7.033469999999999800e+02
7.046309999999999718e+02
7.059139999999999873e+02
7.071979999999999791e+02
7.084800000000000182e+02
7.097630000000000337e+02
7.110449999999999591e+02
7.123269999999999982e+02
7.136090000000000373e+02
7.148899999999999864e+02
7.161710000000000491e+02
7.174510000000000218e+02
7.187319999999999709e+02
7.200119999999999436e+02
7.212920000000000300e+02
7.225720000000000027e+02
7.238509999999999991e+02
7.251299999999999955e+02
7.264080000000000155e+02
7.276870000000000118e+02
7.289650000000000318e+02
7.302430000000000518e+02
7.315199999999999818e+02
7.327970000000000255e+02
7.340739999999999554e+02
7.353500000000000227e+02
7.366269999999999527e+02
7.379030000000000200e+02
7.391779999999999973e+02
7.404539999999999509e+02
7.417290000000000418e+02
7.430040000000000191e+02
7.442780000000000200e+02
7.455520000000000209e+02
7.468260000000000218e+02
7.480990000000000464e+02
7.493730000000000473e+02
7.506459999999999582e+02
7.519180000000000064e+02
7.531910000000000309e+02
7.544629999999999654e+02
7.557350000000000136e+02
7.570069999999999482e+02
7.582770000000000437e+02
7.595489999999999782e+02
7.608189999999999600e+02
7.620900000000000318e+02
7.633590000000000373e+02
7.646290000000000191e+02
7.658990000000000009e+02
7.671680000000000064e+02
7.684360000000000355e+02
7.697039999999999509e+02
7.709729999999999563e+02
7.722409999999999854e+02
7.735090000000000146e+02
7.747759999999999536e+02
7.760430000000000064e+02
7.773099999999999454e+02
7.785760000000000218e+02
7.798419999999999845e+02
7.811079999999999472e+02
7.823740000000000236e+02
7.836390000000000100e+02
7.849039999999999964e+02
7.861689999999999827e+02
7.874329999999999927e+02
7.886970000000000027e+02
7.899610000000000127e+02
7.912250000000000227e+02
7.924869999999999663e+02
7.937509999999999764e+02
7.950130000000000337e+02
7.962749999999999773e+02
7.975380000000000109e+02
7.987989999999999782e+02
8.000610000000000355e+02
8.013220000000000027e+02
8.025819999999999936e+02
8.038429999999999609e+02
8.051029999999999518e+02
8.063640000000000327e+02
8.076230000000000473e+02
8.088819999999999482e+02
8.101409999999999627e+02
8.113999999999999773e+02
8.126589999999999918e+02
8.139170000000000300e+02
8.151749999999999545e+02
8.164329999999999927e+02
8.176900000000000546e+02
8.189470000000000027e+02
8.202039999999999509e+02
8.214600000000000364e+02
8.227160000000000082e+02
8.239719999999999800e+02
8.252269999999999754e+02
8.264829999999999472e+02
8.277380000000000564e+02
8.289930000000000518e+02
8.302469999999999573e+02
8.315009999999999764e+02
8.327549999999999955e+02
8.340080000000000382e+02
8.352619999999999436e+02
8.365149999999999864e+02
8.377670000000000528e+02
8.390199999999999818e+02
8.402720000000000482e+02
8.415230000000000246e+02
8.427749999999999773e+02
8.440259999999999536e+02
8.452770000000000437e+02
8.465280000000000200e+02
8.477780000000000200e+02
8.490280000000000200e+02
8.502780000000000200e+02
8.515270000000000437e+02
8.527759999999999536e+02
8.540249999999999773e+02
8.552740000000000009e+02
8.565220000000000482e+02
8.577699999999999818e+02
8.590180000000000291e+02
8.602649999999999864e+02
8.615119999999999436e+02
8.627590000000000146e+02
8.640059999999999718e+02
8.652519999999999527e+02
8.664980000000000473e+02
8.677440000000000282e+02
8.689890000000000327e+02
8.702340000000000373e+02
8.714790000000000418e+02
8.727240000000000464e+02
8.739679999999999609e+02
8.752119999999999891e+02
8.764550000000000409e+02
8.776989999999999554e+02
8.789420000000000073e+02
8.801849999999999454e+02
8.814270000000000209e+02
8.826689999999999827e+02
8.839120000000000346e+02
8.851530000000000200e+02
8.863940000000000055e+02
8.876349999999999909e+02
8.888759999999999764e+02
8.901169999999999618e+02
8.913569999999999709e+02
8.925969999999999800e+02
8.938360000000000127e+02
8.950760000000000218e+02
8.963150000000000546e+02
8.975529999999999973e+02
8.987920000000000300e+02
9.000299999999999727e+02
9.012680000000000291e+02
9.025059999999999718e+02
9.037430000000000518e+02
9.049800000000000182e+02
9.062169999999999845e+02
9.074539999999999509e+02
9.086889999999999645e+02
9.099249999999999545e+02
9.111609999999999445e+02
9.123959999999999582e+02
9.136319999999999482e+02
9.148659999999999854e+02
9.161009999999999991e+02
9.173350000000000364e+02
9.185679999999999836e+02
9.198020000000000209e+02
9.210349999999999682e+02
9.222680000000000291e+02
9.235019999999999527e+02
9.247340000000000373e+02
9.259660000000000082e+02
9.271979999999999791e+02
9.284289999999999736e+02
9.296609999999999445e+02
9.308920000000000528e+02
9.321230000000000473e+02
9.333529999999999518e+02
9.345839999999999463e+02
9.358139999999999645e+02
9.370420000000000300e+02
9.382720000000000482e+02
9.395009999999999764e+02
9.407300000000000182e+02
9.419589999999999463e+02
9.431870000000000118e+02
9.444139999999999873e+02
9.456420000000000528e+02
9.468700000000000045e+02
9.480960000000000036e+02
9.493239999999999554e+02
9.505499999999999545e+02
9.517759999999999536e+02
9.530019999999999527e+02
9.542279999999999518e+02
9.554529999999999745e+02
9.566779999999999973e+02
9.579030000000000200e+02
9.591269999999999527e+02
9.603509999999999991e+02
9.615760000000000218e+02
9.627989999999999782e+02
9.640230000000000246e+02
9.652459999999999809e+02
9.664679999999999609e+02
9.676910000000000309e+02
9.689130000000000109e+02
9.701349999999999909e+02
9.713569999999999709e+02
9.725779999999999745e+02
9.737989999999999782e+02
9.750199999999999818e+02
9.762409999999999854e+02
9.774610000000000127e+02
9.786810000000000400e+02
9.799009999999999536e+02
9.811200000000000045e+02
9.823400000000000318e+02
9.835579999999999927e+02
9.847770000000000437e+02
9.859950000000000045e+02
9.872129999999999654e+02
9.884310000000000400e+02
9.896490000000000009e+02
9.908650000000000091e+02
9.920829999999999700e+02
9.932989999999999782e+02
9.945149999999999864e+02
9.957319999999999709e+02
9.969470000000000027e+02
9.981630000000000109e+02
9.993780000000000427e+02
1.000590000000000032e+03
1.001809999999999945e+03
1.003019999999999982e+03
1.004240000000000009e+03
1.005450000000000045e+03
1.006659999999999968e+03
1.007879999999999995e+03
1.009090000000000032e+03
1.010299999999999955e+03
1.011509999999999991e+03
1.012730000000000018e+03
1.013940000000000055e+03
1.015149999999999977e+03
1.016360000000000014e+03
1.017570000000000050e+03
1.018779999999999973e+03
1.019990000000000009e+03
1.021200000000000045e+03
1.022409999999999968e+03
1.023620000000000005e+03
1.024829999999999927e+03
1.026039999999999964e+03
1.027250000000000000e+03
1.028460000000000036e+03
1.029670000000000073e+03
1.030880000000000109e+03
1.032079999999999927e+03
1.033289999999999964e+03
1.034500000000000000e+03
1.035700000000000045e+03
1.036910000000000082e+03
1.038119999999999891e+03
1.039319999999999936e+03
1.040529999999999973e+03
1.041740000000000009e+03
1.042940000000000055e+03
1.044140000000000100e+03
1.045349999999999909e+03
1.046549999999999955e+03
1.047759999999999991e+03
1.048960000000000036e+03
1.050170000000000073e+03
1.051369999999999891e+03
1.052569999999999936e+03
1.053769999999999982e+03
1.054980000000000018e+03
1.056180000000000064e+03
1.057380000000000109e+03
1.058579999999999927e+03
1.059779999999999973e+03
1.060980000000000018e+03
1.062190000000000055e+03
1.063390000000000100e+03
1.064589999999999918e+03
1.065789999999999964e+03
1.066990000000000009e+03
1.068190000000000055e+03
1.069380000000000109e+03
1.070579999999999927e+03
1.071779999999999973e+03
1.072980000000000018e+03
1.074180000000000064e+03
1.075380000000000109e+03
1.076569999999999936e+03
1.077769999999999982e+03
1.078970000000000027e+03
1.080160000000000082e+03
1.081359999999999900e+03
1.082559999999999945e+03
1.083750000000000000e+03
1.084950000000000045e+03
1.086140000000000100e+03
1.087339999999999918e+03
1.088529999999999973e+03
1.089730000000000018e+03
1.090920000000000073e+03
1.092119999999999891e+03
1.093309999999999945e+03
1.094500000000000000e+03
1.095700000000000045e+03
1.096890000000000100e+03
1.098079999999999927e+03
1.099269999999999982e+03
1.100470000000000027e+03
1.101660000000000082e+03
1.102849999999999909e+03
1.104039999999999964e+03
1.105230000000000018e+03
1.106420000000000073e+03
1.107609999999999900e+03
1.108799999999999955e+03
1.109990000000000009e+03
1.111180000000000064e+03
1.112369999999999891e+03
1.113559999999999945e+03
1.114750000000000000e+03
1.115940000000000055e+03
1.117119999999999891e+03
1.118309999999999945e+03
1.119500000000000000e+03
1.120690000000000055e+03
1.121869999999999891e+03
1.123059999999999945e+03
1.124250000000000000e+03
1.125430000000000064e+03
1.126619999999999891e+03
1.127809999999999945e+03
1.128990000000000009e+03
1.130180000000000064e+03
1.131359999999999900e+03
1.132549999999999955e+03
1.133730000000000018e+03
1.134910000000000082e+03
1.136099999999999909e+03
1.137279999999999973e+03
1.138460000000000036e+03
1.139650000000000091e+03
1.140829999999999927e+03
1.142009999999999991e+03
1.143200000000000045e+03
1.144380000000000109e+03
1.145559999999999945e+03
1.146740000000000009e+03
1.147920000000000073e+03
1.149099999999999909e+03
1.150279999999999973e+03
1.151460000000000036e+03
1.152640000000000100e+03
1.153819999999999936e+03
1.155000000000000000e+03
1.156180000000000064e+03
1.157359999999999900e+03
1.158539999999999964e+03
1.159720000000000027e+03
1.160900000000000091e+03
1.162069999999999936e+03
1.163250000000000000e+03
1.164430000000000064e+03
1.165609999999999900e+03
1.166779999999999973e+03
1.167960000000000036e+03
1.169140000000000100e+03
1.170309999999999945e+03
1.171490000000000009e+03
1.172660000000000082e+03
1.173839999999999918e+03
1.175009999999999991e+03
1.176190000000000055e+03
1.177359999999999900e+03
1.178539999999999964e+03
1.179710000000000036e+03
1.180880000000000109e+03
1.182059999999999945e+03
1.183230000000000018e+03
1.184400000000000091e+03
1.185569999999999936e+03
1.186750000000000000e+03
1.187920000000000073e+03
1.189089999999999918e+03
1.190259999999999991e+03
1.191430000000000064e+03
1.192599999999999909e+03
1.193769999999999982e+03
1.194950000000000045e+03
1.196119999999999891e+03
1.197289999999999964e+03
1.198460000000000036e+03
1.199619999999999891e+03
1.200789999999999964e+03
1.201960000000000036e+03
1.203130000000000109e+03
1.204299999999999955e+03
1.205470000000000027e+03
1.206630000000000109e+03
1.207799999999999955e+03
1.208970000000000027e+03
1.210140000000000100e+03
1.211299999999999955e+03
1.212470000000000027e+03
1.213640000000000100e+03
1.214799999999999955e+03
1.215970000000000027e+03
1.217130000000000109e+03
1.218299999999999955e+03
1.219460000000000036e+03
1.220630000000000109e+03
1.221789999999999964e+03
1.222950000000000045e+03
1.224119999999999891e+03
1.225279999999999973e+03
1.226450000000000045e+03
1.227609999999999900e+03
1.228769999999999982e+03
1.229930000000000064e+03
1.231099999999999909e+03
1.232259999999999991e+03
1.233420000000000073e+03
1.234579999999999927e+03
1.235740000000000009e+03
1.236900000000000091e+03
1.238059999999999945e+03
1.239220000000000027e+03
1.240380000000000109e+03
1.241539999999999964e+03
1.242700000000000045e+03
1.243859999999999900e+03
1.245019999999999982e+03
1.246180000000000064e+03
1.247339999999999918e+03
1.248500000000000000e+03
1.249650000000000091e+03
1.250809999999999945e+03
1.251970000000000027e+03
1.253130000000000109e+03
1.254279999999999973e+03
1.255440000000000055e+03
1.256599999999999909e+03
1.257750000000000000e+03
1.258910000000000082e+03
1.260059999999999945e+03
1.261220000000000027e+03
1.262369999999999891e+03
1.263529999999999973e+03
1.264680000000000064e+03
1.265839999999999918e+03
1.266990000000000009e+03
1.268150000000000091e+03
1.269299999999999955e+03
1.270450000000000045e+03
1.271599999999999909e+03
1.272759999999999991e+03
1.273910000000000082e+03
1.275059999999999945e+03
1.276210000000000036e+03
1.277369999999999891e+03
1.278519999999999982e+03
1.279670000000000073e+03
1.280819999999999936e+03
1.281970000000000027e+03
1.283119999999999891e+03
1.284269999999999982e+03
1.285420000000000073e+03
1.286569999999999936e+03
1.287720000000000027e+03
1.288869999999999891e+03
1.290019999999999982e+03
1.291170000000000073e+03
1.292309999999999945e+03
1.293460000000000036e+03
1.294609999999999900e+03
1.295759999999999991e+03
1.296900000000000091e+03
1.298049999999999955e+03
1.299200000000000045e+03
1.300339999999999918e+03
1.301490000000000009e+03
1.302640000000000100e+03
1.303779999999999973e+03
1.304930000000000064e+03
1.306069999999999936e+03
1.307220000000000027e+03
1.308359999999999900e+03
1.309509999999999991e+03
1.310650000000000091e+03
1.311789999999999964e+03
1.312940000000000055e+03
1.314079999999999927e+03
1.315220000000000027e+03
1.316369999999999891e+03
1.317509999999999991e+03
1.318650000000000091e+03
1.319789999999999964e+03
1.320930000000000064e+03
1.322079999999999927e+03
1.323220000000000027e+03
1.324359999999999900e+03
1.325500000000000000e+03
1.326640000000000100e+03
1.327779999999999973e+03
1.328920000000000073e+03
1.330059999999999945e+03
1.331200000000000045e+03
1.332339999999999918e+03
1.333480000000000018e+03
1.334619999999999891e+03
1.335750000000000000e+03
1.336890000000000100e+03
1.338029999999999973e+03
1.339170000000000073e+03
1.340309999999999945e+03
1.341440000000000055e+03
1.342579999999999927e+03
1.343720000000000027e+03
1.344849999999999909e+03
1.345990000000000009e+03
1.347119999999999891e+03
1.348259999999999991e+03
1.349390000000000100e+03
1.350529999999999973e+03
1.351670000000000073e+03
1.352799999999999955e+03
1.353930000000000064e+03
1.355069999999999936e+03
1.356200000000000045e+03
1.357329999999999927e+03
1.358470000000000027e+03
1.359599999999999909e+03
1.360730000000000018e+03
1.361869999999999891e+03
1.363000000000000000e+03
1.364130000000000109e+03
1.365259999999999991e+03
1.366390000000000100e+03
1.367529999999999973e+03
1.368660000000000082e+03
1.369789999999999964e+03
1.370920000000000073e+03
1.372049999999999955e+03
1.373180000000000064e+03
1.374309999999999945e+03
1.375440000000000055e+03
1.376569999999999936e+03
1.377700000000000045e+03
1.378819999999999936e+03
1.379950000000000045e+03
1.381079999999999927e+03
1.382210000000000036e+03
1.383339999999999918e+03
1.384460000000000036e+03
1.385589999999999918e+03
1.386720000000000027e+03
1.387839999999999918e+03
1.388970000000000027e+03
1.390099999999999909e+03
1.391220000000000027e+03
1.392349999999999909e+03
1.393470000000000027e+03
1.394599999999999909e+03
1.395720000000000027e+03
1.396849999999999909e+03
1.397970000000000027e+03
1.399099999999999909e+03
1.400220000000000027e+03
1.401339999999999918e+03
1.402470000000000027e+03
1.403589999999999918e+03
1.404710000000000036e+03
1.405839999999999918e+03
1.406960000000000036e+03
1.408079999999999927e+03
1.409200000000000045e+03
1.410319999999999936e+03
1.411440000000000055e+03
1.412569999999999936e+03
1.413690000000000055e+03
1.414809999999999945e+03
1.415930000000000064e+03
1.417049999999999955e+03
1.418170000000000073e+03
1.419289999999999964e+03
1.420410000000000082e+03
1.421529999999999973e+03
1.422640000000000100e+03
1.423759999999999991e+03
1.424880000000000109e+03
1.426000000000000000e+03
1.427119999999999891e+03
1.428240000000000009e+03
1.429349999999999909e+03
1.430470000000000027e+03
1.431589999999999918e+03
1.432700000000000045e+03
1.433819999999999936e+03
1.434930000000000064e+03
1.436049999999999955e+03
1.437170000000000073e+03
1.438279999999999973e+03
1.439400000000000091e+03
1.440509999999999991e+03
1.441630000000000109e+03
1.442740000000000009e+03
1.443849999999999909e+03
1.444970000000000027e+03
1.446079999999999927e+03
1.447190000000000055e+03
1.448309999999999945e+03
1.449420000000000073e+03
1.450529999999999973e+03
1.451650000000000091e+03
1.452759999999999991e+03
1.453869999999999891e+03
1.454980000000000018e+03
1.456089999999999918e+03
1.457200000000000045e+03
1.458309999999999945e+03
1.459420000000000073e+03
1.460529999999999973e+03
1.461640000000000100e+03
1.462750000000000000e+03
1.463859999999999900e+03
1.464970000000000027e+03
1.466079999999999927e+03
1.467190000000000055e+03
1.468299999999999955e+03
1.469410000000000082e+03
1.470519999999999982e+03
1.471619999999999891e+03
1.472730000000000018e+03
1.473839999999999918e+03
1.474950000000000045e+03
1.476049999999999955e+03
1.477160000000000082e+03
1.478269999999999982e+03
1.479369999999999891e+03
1.480480000000000018e+03
1.481579999999999927e+03
1.482690000000000055e+03
1.483789999999999964e+03
1.484900000000000091e+03
1.486000000000000000e+03
1.487109999999999900e+03
1.488210000000000036e+03
1.489309999999999945e+03
1.490420000000000073e+03
1.491519999999999982e+03
1.492630000000000109e+03
1.493730000000000018e+03
1.494829999999999927e+03
1.495930000000000064e+03
1.497029999999999973e+03
1.498140000000000100e+03
1.499240000000000009e+03
1.500339999999999918e+03
1.501440000000000055e+03
1.502539999999999964e+03
1.503640000000000100e+03
1.504740000000000009e+03
1.505839999999999918e+03
1.506940000000000055e+03
1.508039999999999964e+03
1.509140000000000100e+03
1.510240000000000009e+03
1.511339999999999918e+03
1.512440000000000055e+03
1.513539999999999964e+03
1.514640000000000100e+03
1.515730000000000018e+03
1.516829999999999927e+03
1.517930000000000064e+03
1.519029999999999973e+03
1.520119999999999891e+03
1.521220000000000027e+03
1.522309999999999945e+03
1.523410000000000082e+03
1.524509999999999991e+03
1.525599999999999909e+03
1.526700000000000045e+03
1.527789999999999964e+03
1.528890000000000100e+03
1.529980000000000018e+03
1.531079999999999927e+03
1.532170000000000073e+03
1.533269999999999982e+03
1.534359999999999900e+03
1.535450000000000045e+03
1.536549999999999955e+03
1.537640000000000100e+03
1.538730000000000018e+03
1.539829999999999927e+03
1.540920000000000073e+03
1.542009999999999991e+03
1.543099999999999909e+03
1.544190000000000055e+03
1.545279999999999973e+03
1.546380000000000109e+03
1.547470000000000027e+03
1.548559999999999945e+03
1.549650000000000091e+03
1.550740000000000009e+03
1.551829999999999927e+03
1.552920000000000073e+03
1.554009999999999991e+03
1.555089999999999918e+03
1.556180000000000064e+03
1.557269999999999982e+03
1.558359999999999900e+03
1.559450000000000045e+03
1.560539999999999964e+03
1.561619999999999891e+03
1.562710000000000036e+03
1.563799999999999955e+03
1.564890000000000100e+03
1.565970000000000027e+03
1.567059999999999945e+03
1.568150000000000091e+03
1.569230000000000018e+03
1.570319999999999936e+03
1.571400000000000091e+03
1.572490000000000009e+03
1.573569999999999936e+03
1.574660000000000082e+03
1.575740000000000009e+03
1.576829999999999927e+03
1.577910000000000082e+03
1.578990000000000009e+03
1.580079999999999927e+03
1.581160000000000082e+03
1.582240000000000009e+03
1.583329999999999927e+03
1.584410000000000082e+03
1.585490000000000009e+03
1.586569999999999936e+03
1.587660000000000082e+03
1.588740000000000009e+03
1.589819999999999936e+03
1.590900000000000091e+03
1.591980000000000018e+03
1.593059999999999945e+03
1.594140000000000100e+03
1.595220000000000027e+03
1.596299999999999955e+03
1.597380000000000109e+03
1.598460000000000036e+03
1.599539999999999964e+03
