4.012789999999999964e+02
4.026340000000000146e+02
4.039889999999999759e+02
4.053439999999999941e+02
4.066970000000000027e+02
4.080520000000000209e+02
4.094049999999999727e+02
4.107579999999999814e+02
4.121109999999999900e+02
4.134639999999999986e+02
4.148159999999999741e+02
4.161680000000000064e+02
4.175190000000000055e+02
4.188700000000000045e+02
4.202210000000000036e+02
4.215720000000000027e+02
4.229220000000000255e+02
4.242719999999999914e+02
4.256220000000000141e+02
4.269710000000000036e+02
4.283199999999999932e+02
4.296689999999999827e+02
4.310179999999999723e+02
4.323659999999999854e+02
4.337139999999999986e+02
4.350600000000000023e+02
4.364080000000000155e+02
4.377549999999999955e+02
4.391009999999999991e+02
4.404470000000000027e+02
4.417930000000000064e+02
4.431379999999999768e+02
4.444839999999999804e+02
4.458290000000000077e+02
4.471730000000000018e+02
4.485179999999999723e+02
4.498609999999999900e+02
4.512040000000000077e+02
4.525480000000000018e+02
4.538910000000000196e+02
4.552339999999999804e+02
4.565760000000000218e+02
4.579169999999999732e+02
4.592599999999999909e+02
4.606009999999999991e+02
4.619420000000000073e+02
4.632819999999999823e+02
4.646220000000000141e+02
4.659630000000000223e+02
4.673029999999999973e+02
4.686419999999999959e+02
4.699809999999999945e+02
4.713199999999999932e+02
4.726589999999999918e+02
4.739970000000000141e+02
4.753349999999999795e+02
4.766720000000000255e+02
4.780090000000000146e+02
4.793460000000000036e+02
4.806820000000000164e+02
4.820190000000000055e+02
4.833550000000000182e+02
4.846899999999999977e+02
4.860249999999999773e+02
4.873609999999999900e+02
4.886960000000000264e+02
4.900289999999999964e+02
4.913639999999999759e+02
4.926970000000000027e+02
4.940310000000000059e+02
4.953629999999999995e+02
4.966970000000000027e+02
4.980289999999999964e+02
4.993609999999999900e+02
5.006929999999999836e+02
5.020249999999999773e+02
5.033559999999999945e+02
5.046859999999999786e+02
5.060179999999999723e+02
5.073480000000000132e+02
5.086770000000000209e+02
5.100070000000000050e+02
5.113360000000000127e+02
5.126660000000000537e+02
5.139940000000000282e+02
5.153220000000000027e+02
5.166499999999999773e+02
5.179779999999999518e+02
5.193049999999999500e+02
5.206330000000000382e+02
5.219589999999999463e+02
5.232859999999999445e+02
5.246119999999999663e+02
5.259370000000000118e+02
5.272630000000000337e+02
5.285879999999999654e+02
5.299130000000000109e+02
5.312380000000000564e+02
5.325620000000000118e+02
5.338859999999999673e+02
5.352100000000000364e+02
5.365330000000000155e+02
5.378559999999999945e+02
5.391789999999999736e+02
5.405009999999999764e+02
5.418239999999999554e+02
5.431449999999999818e+02
5.444669999999999845e+02
5.457880000000000109e+02
5.471079999999999472e+02
5.484289999999999736e+02
5.497490000000000236e+02
5.510689999999999600e+02
5.523890000000000100e+02
5.537079999999999700e+02
5.550270000000000437e+02
5.563450000000000273e+02
5.576639999999999873e+02
5.589819999999999709e+02
5.602999999999999545e+02
5.616169999999999618e+02
5.629339999999999691e+02
5.642509999999999764e+02
5.655670000000000073e+02
5.668830000000000382e+02
5.681989999999999554e+02
5.695149999999999864e+02
5.708300000000000409e+02
5.721449999999999818e+02
5.734589999999999463e+02
5.747740000000000009e+02
5.760879999999999654e+02
5.774020000000000437e+02
5.787150000000000318e+02
5.800280000000000200e+02
5.813410000000000082e+02
5.826530000000000200e+02
5.839650000000000318e+02
5.852780000000000200e+02
5.865890000000000555e+02
5.878999999999999773e+02
5.892110000000000127e+02
5.905220000000000482e+02
5.918319999999999936e+02
5.931409999999999627e+02
5.944510000000000218e+02
5.957599999999999909e+02
5.970689999999999600e+02
5.983790000000000191e+02
5.996870000000000118e+02
6.009950000000000045e+02
6.023020000000000209e+02
6.036100000000000136e+02
6.049180000000000064e+02
6.062240000000000464e+02
6.075309999999999491e+02
6.088369999999999891e+02
6.101430000000000291e+02
6.114489999999999554e+02
6.127540000000000191e+02
6.140589999999999691e+02
6.153630000000000564e+02
6.166680000000000064e+02
6.179719999999999800e+02
6.192759999999999536e+02
6.205800000000000409e+02
6.218819999999999482e+02
6.231849999999999454e+02
6.244880000000000564e+02
6.257899999999999636e+02
6.270919999999999845e+02
6.283940000000000055e+02
6.296950000000000500e+02
6.309969999999999573e+02
6.322970000000000255e+02
6.335979999999999563e+02
6.348970000000000482e+02
6.361979999999999791e+02
6.374969999999999573e+02
6.387960000000000491e+02
6.400950000000000273e+02
6.413940000000000055e+02
6.426920000000000073e+02
6.439900000000000091e+02
6.452880000000000109e+02
6.465850000000000364e+02
6.478819999999999482e+02
6.491789999999999736e+02
6.504750000000000227e+02
6.517709999999999582e+02
6.530670000000000073e+02
6.543630000000000564e+02
6.556580000000000155e+02
6.569529999999999745e+02
6.582480000000000473e+02
6.595420000000000300e+02
6.608360000000000127e+02
6.621299999999999955e+02
6.634230000000000018e+02
6.647160000000000082e+02
6.660090000000000146e+02
6.673010000000000446e+02
6.685940000000000509e+02
6.698859999999999673e+02
6.711770000000000209e+02
6.724690000000000509e+02
6.737590000000000146e+02
6.750499999999999545e+02
6.763400000000000318e+02
6.776309999999999718e+02
6.789199999999999591e+02
6.802100000000000364e+02
6.814990000000000236e+02
6.827870000000000346e+02
6.840769999999999982e+02
6.853650000000000091e+02
6.866520000000000437e+02
6.879400000000000546e+02
6.892279999999999518e+02
6.905149999999999864e+02
6.918020000000000209e+02
6.930879999999999654e+02
6.943740000000000236e+02
6.956599999999999682e+02
6.969450000000000500e+02
6.982309999999999945e+02
6.995159999999999627e+02
7.007999999999999545e+02
7.020850000000000364e+02
7.033690000000000282e+02
7.046520000000000437e+02
7.059360000000000355e+02
7.072190000000000509e+02
7.085019999999999527e+02
7.097839999999999918e+02
7.110670000000000073e+02
7.123490000000000464e+02
7.136299999999999955e+02
7.149120000000000346e+02
7.161920000000000073e+02
7.174729999999999563e+02
7.187530000000000427e+02
7.200339999999999918e+02
7.213139999999999645e+02
7.225929999999999609e+02
7.238730000000000473e+02
7.251509999999999536e+02
7.264299999999999500e+02
7.277089999999999463e+02
7.289859999999999900e+02
7.302640000000000100e+02
7.315410000000000537e+02
7.328179999999999836e+02
7.340960000000000036e+02
7.353719999999999573e+02
7.366490000000000009e+02
7.379249999999999545e+02
7.392000000000000455e+02
7.404759999999999991e+02
7.417500000000000000e+02
7.430249999999999773e+02
7.442989999999999782e+02
7.455739999999999554e+02
7.468479999999999563e+02
7.481209999999999809e+02
7.493940000000000055e+02
7.506670000000000300e+02
7.519400000000000546e+02
7.532119999999999891e+02
7.544840000000000373e+02
7.557569999999999482e+02
7.570280000000000200e+02
7.582989999999999782e+02
7.595700000000000500e+02
7.608410000000000082e+02
7.621109999999999900e+02
7.633799999999999955e+02
7.646509999999999536e+02
7.659199999999999591e+02
7.671889999999999645e+02
7.684579999999999700e+02
7.697259999999999991e+02
7.709940000000000282e+02
7.722619999999999436e+02
7.735299999999999727e+02
7.747970000000000255e+02
7.760639999999999645e+02
7.773310000000000173e+02
7.785979999999999563e+02
7.798640000000000327e+02
7.811290000000000191e+02
7.823949999999999818e+02
7.836599999999999682e+02
7.849249999999999545e+02
7.861900000000000546e+02
7.874539999999999509e+02
7.887190000000000509e+02
7.899819999999999709e+02
7.912459999999999809e+02
7.925090000000000146e+02
7.937709999999999582e+02
7.950339999999999918e+02
7.962960000000000491e+02
7.975589999999999691e+02
7.988200000000000500e+02
8.000819999999999936e+02
8.013429999999999609e+02
8.026040000000000418e+02
8.038640000000000327e+02
8.051250000000000000e+02
8.063849999999999909e+02
8.076440000000000055e+02
8.089030000000000200e+02
8.101630000000000109e+02
8.114220000000000255e+02
8.126799999999999500e+02
8.139379999999999882e+02
8.151960000000000264e+02
8.164529999999999745e+02
8.177110000000000127e+02
8.189679999999999609e+02
8.202240000000000464e+02
8.214809999999999945e+02
8.227369999999999663e+02
8.239930000000000518e+02
8.252490000000000236e+02
8.265040000000000191e+02
8.277590000000000146e+02
8.290140000000000100e+02
8.302680000000000291e+02
8.315230000000000246e+02
8.327759999999999536e+02
8.340299999999999727e+02
8.352820000000000391e+02
8.365359999999999445e+02
8.377880000000000109e+02
8.390410000000000537e+02
8.402920000000000300e+02
8.415449999999999591e+02
8.427960000000000491e+02
8.440480000000000018e+02
8.452980000000000018e+02
8.465489999999999782e+02
8.477989999999999782e+02
8.490489999999999782e+02
8.502989999999999782e+02
8.515480000000000018e+02
8.527970000000000255e+02
8.540460000000000491e+02
8.552939999999999827e+02
8.565430000000000064e+02
8.577910000000000537e+02
8.590380000000000109e+02
8.602859999999999445e+02
8.615330000000000155e+02
8.627799999999999727e+02
8.640270000000000437e+02
8.652730000000000246e+02
8.665190000000000055e+02
8.677640000000000100e+02
8.690099999999999909e+02
8.702549999999999955e+02
8.715000000000000000e+02
8.727450000000000045e+02
8.739880000000000564e+02
8.752329999999999472e+02
8.764769999999999754e+02
8.777200000000000273e+02
8.789619999999999891e+02
8.802060000000000173e+02
8.814479999999999791e+02
8.826900000000000546e+02
8.839320000000000164e+02
8.851739999999999782e+02
8.864160000000000537e+02
8.876559999999999491e+02
8.888970000000000482e+02
8.901369999999999436e+02
8.913769999999999527e+02
8.926169999999999618e+02
8.938569999999999709e+02
8.950960000000000036e+02
8.963350000000000364e+02
8.975739999999999554e+02
8.988129999999999882e+02
9.000510000000000446e+02
9.012889999999999873e+02
9.025270000000000437e+02
9.037640000000000100e+02
9.050000000000000000e+02
9.062369999999999663e+02
9.074740000000000464e+02
9.087110000000000127e+02
9.099460000000000264e+02
9.111820000000000164e+02
9.124170000000000300e+02
9.136520000000000437e+02
9.148859999999999673e+02
9.161209999999999809e+02
9.173550000000000182e+02
9.185900000000000318e+02
9.198229999999999791e+02
9.210560000000000400e+02
9.222899999999999636e+02
9.235220000000000482e+02
9.247540000000000191e+02
9.259859999999999900e+02
9.272190000000000509e+02
9.284500000000000455e+02
9.296820000000000164e+02
9.309130000000000109e+02
9.321430000000000291e+02
9.333740000000000236e+02
9.346040000000000418e+02
9.358339999999999463e+02
9.370639999999999645e+02
9.382930000000000064e+02
9.395209999999999582e+02
9.407500000000000000e+02
9.419790000000000418e+02
9.432069999999999936e+02
9.444360000000000355e+02
9.456630000000000109e+02
9.468899999999999864e+02
9.481169999999999618e+02
9.493440000000000509e+02
9.505710000000000264e+02
9.517970000000000255e+02
9.530230000000000246e+02
9.542480000000000473e+02
9.554729999999999563e+02
9.566989999999999554e+02
9.579230000000000018e+02
9.591480000000000246e+02
9.603719999999999573e+02
9.615960000000000036e+02
9.628200000000000500e+02
9.640430000000000064e+02
9.652659999999999627e+02
9.664890000000000327e+02
9.677119999999999891e+02
9.689339999999999691e+02
9.701559999999999491e+02
9.713780000000000427e+02
9.725990000000000464e+02
9.738200000000000500e+02
9.750410000000000537e+02
9.762609999999999673e+02
9.774819999999999709e+02
9.787019999999999982e+02
9.799210000000000491e+02
9.811409999999999627e+02
9.823600000000000136e+02
9.835779999999999745e+02
9.847970000000000255e+02
9.860159999999999627e+02
9.872340000000000373e+02
9.884519999999999982e+02
9.896689999999999827e+02
9.908859999999999673e+02
9.921029999999999518e+02
9.933189999999999600e+02
9.945359999999999445e+02
9.957519999999999527e+02
9.969679999999999609e+02
9.981829999999999927e+02
9.993990000000000009e+02
1.000610000000000014e+03
1.001830000000000041e+03
1.003039999999999964e+03
1.004259999999999991e+03
1.005470000000000027e+03
1.006679999999999950e+03
1.007899999999999977e+03
1.009110000000000014e+03
1.010320000000000050e+03
1.011539999999999964e+03
1.012750000000000000e+03
1.013960000000000036e+03
1.015169999999999959e+03
1.016379999999999995e+03
1.017590000000000032e+03
1.018799999999999955e+03
1.020009999999999991e+03
1.021220000000000027e+03
1.022429999999999950e+03
1.023639999999999986e+03
1.024849999999999909e+03
1.026059999999999945e+03
1.027269999999999982e+03
1.028480000000000018e+03
1.029690000000000055e+03
1.030900000000000091e+03
1.032099999999999909e+03
1.033309999999999945e+03
1.034519999999999982e+03
1.035720000000000027e+03
1.036930000000000064e+03
1.038140000000000100e+03
1.039339999999999918e+03
1.040549999999999955e+03
1.041759999999999991e+03
1.042960000000000036e+03
1.044170000000000073e+03
1.045369999999999891e+03
1.046569999999999936e+03
1.047779999999999973e+03
1.048980000000000018e+03
1.050190000000000055e+03
1.051390000000000100e+03
1.052589999999999918e+03
1.053789999999999964e+03
1.055000000000000000e+03
1.056200000000000045e+03
1.057400000000000091e+03
1.058599999999999909e+03
1.059799999999999955e+03
1.061009999999999991e+03
1.062210000000000036e+03
1.063410000000000082e+03
1.064609999999999900e+03
1.065809999999999945e+03
1.067009999999999991e+03
1.068210000000000036e+03
1.069400000000000091e+03
1.070599999999999909e+03
1.071799999999999955e+03
1.073000000000000000e+03
1.074200000000000045e+03
1.075400000000000091e+03
1.076589999999999918e+03
1.077789999999999964e+03
1.078990000000000009e+03
1.080180000000000064e+03
1.081380000000000109e+03
1.082579999999999927e+03
1.083769999999999982e+03
1.084970000000000027e+03
1.086160000000000082e+03
1.087359999999999900e+03
1.088549999999999955e+03
1.089750000000000000e+03
1.090940000000000055e+03
1.092140000000000100e+03
1.093329999999999927e+03
1.094519999999999982e+03
1.095720000000000027e+03
1.096910000000000082e+03
1.098099999999999909e+03
1.099289999999999964e+03
1.100480000000000018e+03
1.101680000000000064e+03
1.102869999999999891e+03
1.104059999999999945e+03
1.105250000000000000e+03
1.106440000000000055e+03
1.107630000000000109e+03
1.108819999999999936e+03
1.110009999999999991e+03
1.111200000000000045e+03
1.112390000000000100e+03
1.113579999999999927e+03
1.114769999999999982e+03
1.115960000000000036e+03
1.117140000000000100e+03
1.118329999999999927e+03
1.119519999999999982e+03
1.120710000000000036e+03
1.121890000000000100e+03
1.123079999999999927e+03
1.124269999999999982e+03
1.125450000000000045e+03
1.126640000000000100e+03
1.127829999999999927e+03
1.129009999999999991e+03
1.130200000000000045e+03
1.131380000000000109e+03
1.132569999999999936e+03
1.133750000000000000e+03
1.134930000000000064e+03
1.136119999999999891e+03
1.137299999999999955e+03
1.138480000000000018e+03
1.139670000000000073e+03
1.140849999999999909e+03
1.142029999999999973e+03
1.143220000000000027e+03
1.144400000000000091e+03
1.145579999999999927e+03
1.146759999999999991e+03
1.147940000000000055e+03
1.149119999999999891e+03
1.150299999999999955e+03
1.151480000000000018e+03
1.152660000000000082e+03
1.153839999999999918e+03
1.155019999999999982e+03
1.156200000000000045e+03
1.157380000000000109e+03
1.158559999999999945e+03
1.159740000000000009e+03
1.160920000000000073e+03
1.162089999999999918e+03
1.163269999999999982e+03
1.164450000000000045e+03
1.165630000000000109e+03
1.166799999999999955e+03
1.167980000000000018e+03
1.169160000000000082e+03
1.170329999999999927e+03
1.171509999999999991e+03
1.172680000000000064e+03
1.173859999999999900e+03
1.175029999999999973e+03
1.176210000000000036e+03
1.177380000000000109e+03
1.178559999999999945e+03
1.179730000000000018e+03
1.180900000000000091e+03
1.182079999999999927e+03
1.183250000000000000e+03
1.184420000000000073e+03
1.185589999999999918e+03
1.186769999999999982e+03
1.187940000000000055e+03
1.189109999999999900e+03
1.190279999999999973e+03
1.191450000000000045e+03
1.192619999999999891e+03
1.193799999999999955e+03
1.194970000000000027e+03
1.196140000000000100e+03
1.197309999999999945e+03
1.198470000000000027e+03
1.199640000000000100e+03
1.200809999999999945e+03
1.201980000000000018e+03
1.203150000000000091e+03
1.204319999999999936e+03
1.205490000000000009e+03
1.206650000000000091e+03
1.207819999999999936e+03
1.208990000000000009e+03
1.210160000000000082e+03
1.211319999999999936e+03
1.212490000000000009e+03
1.213660000000000082e+03
1.214819999999999936e+03
1.215990000000000009e+03
1.217150000000000091e+03
1.218319999999999936e+03
1.219480000000000018e+03
1.220650000000000091e+03
1.221809999999999945e+03
1.222970000000000027e+03
1.224140000000000100e+03
1.225299999999999955e+03
1.226470000000000027e+03
1.227630000000000109e+03
1.228789999999999964e+03
1.229950000000000045e+03
1.231109999999999900e+03
1.232279999999999973e+03
1.233440000000000055e+03
1.234599999999999909e+03
1.235759999999999991e+03
1.236920000000000073e+03
1.238079999999999927e+03
1.239240000000000009e+03
1.240400000000000091e+03
1.241559999999999945e+03
1.242720000000000027e+03
1.243880000000000109e+03
1.245039999999999964e+03
1.246200000000000045e+03
1.247359999999999900e+03
1.248519999999999982e+03
1.249670000000000073e+03
1.250829999999999927e+03
1.251990000000000009e+03
1.253150000000000091e+03
1.254299999999999955e+03
1.255460000000000036e+03
1.256619999999999891e+03
1.257769999999999982e+03
1.258930000000000064e+03
1.260079999999999927e+03
1.261240000000000009e+03
1.262390000000000100e+03
1.263549999999999955e+03
1.264700000000000045e+03
1.265859999999999900e+03
1.267009999999999991e+03
1.268160000000000082e+03
1.269319999999999936e+03
1.270470000000000027e+03
1.271619999999999891e+03
1.272779999999999973e+03
1.273930000000000064e+03
1.275079999999999927e+03
1.276230000000000018e+03
1.277390000000000100e+03
1.278539999999999964e+03
1.279690000000000055e+03
1.280839999999999918e+03
1.281990000000000009e+03
1.283140000000000100e+03
1.284289999999999964e+03
1.285440000000000055e+03
1.286589999999999918e+03
1.287740000000000009e+03
1.288890000000000100e+03
1.290039999999999964e+03
1.291180000000000064e+03
1.292329999999999927e+03
1.293480000000000018e+03
1.294630000000000109e+03
1.295779999999999973e+03
1.296920000000000073e+03
1.298069999999999936e+03
1.299220000000000027e+03
1.300359999999999900e+03
1.301509999999999991e+03
1.302650000000000091e+03
1.303799999999999955e+03
1.304950000000000045e+03
1.306089999999999918e+03
1.307240000000000009e+03
1.308380000000000109e+03
1.309529999999999973e+03
1.310670000000000073e+03
1.311809999999999945e+03
1.312960000000000036e+03
1.314099999999999909e+03
1.315240000000000009e+03
1.316390000000000100e+03
1.317529999999999973e+03
1.318670000000000073e+03
1.319809999999999945e+03
1.320950000000000045e+03
1.322099999999999909e+03
1.323240000000000009e+03
1.324380000000000109e+03
1.325519999999999982e+03
1.326660000000000082e+03
1.327799999999999955e+03
1.328940000000000055e+03
1.330079999999999927e+03
1.331220000000000027e+03
1.332359999999999900e+03
1.333500000000000000e+03
1.334640000000000100e+03
1.335769999999999982e+03
1.336910000000000082e+03
1.338049999999999955e+03
1.339190000000000055e+03
1.340319999999999936e+03
1.341460000000000036e+03
1.342599999999999909e+03
1.343740000000000009e+03
1.344869999999999891e+03
1.346009999999999991e+03
1.347140000000000100e+03
1.348279999999999973e+03
1.349410000000000082e+03
1.350549999999999955e+03
1.351680000000000064e+03
1.352819999999999936e+03
1.353950000000000045e+03
1.355089999999999918e+03
1.356220000000000027e+03
1.357349999999999909e+03
1.358490000000000009e+03
1.359619999999999891e+03
1.360750000000000000e+03
1.361890000000000100e+03
1.363019999999999982e+03
1.364150000000000091e+03
1.365279999999999973e+03
1.366410000000000082e+03
1.367539999999999964e+03
1.368680000000000064e+03
1.369809999999999945e+03
1.370940000000000055e+03
1.372069999999999936e+03
1.373200000000000045e+03
1.374329999999999927e+03
1.375460000000000036e+03
1.376589999999999918e+03
1.377710000000000036e+03
1.378839999999999918e+03
1.379970000000000027e+03
1.381099999999999909e+03
1.382230000000000018e+03
1.383359999999999900e+03
1.384480000000000018e+03
1.385609999999999900e+03
1.386740000000000009e+03
1.387859999999999900e+03
1.388990000000000009e+03
1.390119999999999891e+03
1.391240000000000009e+03
1.392369999999999891e+03
1.393490000000000009e+03
1.394619999999999891e+03
1.395740000000000009e+03
1.396869999999999891e+03
1.397990000000000009e+03
1.399119999999999891e+03
1.400240000000000009e+03
1.401359999999999900e+03
1.402490000000000009e+03
1.403609999999999900e+03
1.404730000000000018e+03
1.405859999999999900e+03
1.406980000000000018e+03
1.408099999999999909e+03
1.409220000000000027e+03
1.410339999999999918e+03
1.411460000000000036e+03
1.412589999999999918e+03
1.413710000000000036e+03
1.414829999999999927e+03
1.415950000000000045e+03
1.417069999999999936e+03
1.418190000000000055e+03
1.419309999999999945e+03
1.420430000000000064e+03
1.421539999999999964e+03
1.422660000000000082e+03
1.423779999999999973e+03
1.424900000000000091e+03
1.426019999999999982e+03
1.427140000000000100e+03
1.428250000000000000e+03
1.429369999999999891e+03
1.430490000000000009e+03
1.431609999999999900e+03
1.432720000000000027e+03
1.433839999999999918e+03
1.434950000000000045e+03
1.436069999999999936e+03
1.437180000000000064e+03
1.438299999999999955e+03
1.439420000000000073e+03
1.440529999999999973e+03
1.441640000000000100e+03
1.442759999999999991e+03
1.443869999999999891e+03
1.444990000000000009e+03
1.446099999999999909e+03
1.447210000000000036e+03
1.448329999999999927e+03
1.449440000000000055e+03
1.450549999999999955e+03
1.451660000000000082e+03
1.452779999999999973e+03
1.453890000000000100e+03
1.455000000000000000e+03
1.456109999999999900e+03
1.457220000000000027e+03
1.458329999999999927e+03
1.459440000000000055e+03
1.460549999999999955e+03
1.461660000000000082e+03
1.462769999999999982e+03
1.463880000000000109e+03
1.464990000000000009e+03
1.466099999999999909e+03
1.467210000000000036e+03
1.468319999999999936e+03
1.469430000000000064e+03
1.470529999999999973e+03
1.471640000000000100e+03
1.472750000000000000e+03
1.473859999999999900e+03
1.474960000000000036e+03
1.476069999999999936e+03
1.477180000000000064e+03
1.478279999999999973e+03
1.479390000000000100e+03
1.480500000000000000e+03
1.481599999999999909e+03
1.482710000000000036e+03
1.483809999999999945e+03
1.484920000000000073e+03
1.486019999999999982e+03
1.487130000000000109e+03
1.488230000000000018e+03
1.489329999999999927e+03
1.490440000000000055e+03
1.491539999999999964e+03
1.492640000000000100e+03
1.493750000000000000e+03
1.494849999999999909e+03
1.495950000000000045e+03
1.497049999999999955e+03
1.498160000000000082e+03
1.499259999999999991e+03
1.500359999999999900e+03
1.501460000000000036e+03
1.502559999999999945e+03
1.503660000000000082e+03
1.504759999999999991e+03
1.505859999999999900e+03
1.506960000000000036e+03
1.508059999999999945e+03
1.509160000000000082e+03
1.510259999999999991e+03
1.511359999999999900e+03
1.512460000000000036e+03
1.513559999999999945e+03
1.514650000000000091e+03
1.515750000000000000e+03
1.516849999999999909e+03
1.517950000000000045e+03
1.519039999999999964e+03
1.520140000000000100e+03
1.521240000000000009e+03
1.522329999999999927e+03
1.523430000000000064e+03
1.524529999999999973e+03
1.525619999999999891e+03
1.526720000000000027e+03
1.527809999999999945e+03
1.528910000000000082e+03
1.530000000000000000e+03
1.531099999999999909e+03
1.532190000000000055e+03
1.533279999999999973e+03
1.534380000000000109e+03
1.535470000000000027e+03
1.536569999999999936e+03
1.537660000000000082e+03
1.538750000000000000e+03
1.539839999999999918e+03
1.540940000000000055e+03
1.542029999999999973e+03
1.543119999999999891e+03
1.544210000000000036e+03
1.545299999999999955e+03
1.546390000000000100e+03
1.547480000000000018e+03
1.548569999999999936e+03
1.549670000000000073e+03
1.550759999999999991e+03
1.551849999999999909e+03
1.552930000000000064e+03
1.554019999999999982e+03
1.555109999999999900e+03
1.556200000000000045e+03
1.557289999999999964e+03
1.558380000000000109e+03
1.559470000000000027e+03
1.560559999999999945e+03
1.561640000000000100e+03
1.562730000000000018e+03
1.563819999999999936e+03
1.564900000000000091e+03
1.565990000000000009e+03
1.567079999999999927e+03
1.568160000000000082e+03
1.569250000000000000e+03
1.570339999999999918e+03
1.571420000000000073e+03
1.572509999999999991e+03
1.573589999999999918e+03
1.574680000000000064e+03
1.575759999999999991e+03
1.576839999999999918e+03
1.577930000000000064e+03
1.579009999999999991e+03
1.580099999999999909e+03
1.581180000000000064e+03
1.582259999999999991e+03
1.583349999999999909e+03
1.584430000000000064e+03
1.585509999999999991e+03
1.586589999999999918e+03
1.587670000000000073e+03
1.588759999999999991e+03
1.589839999999999918e+03
1.590920000000000073e+03
1.592000000000000000e+03
1.593079999999999927e+03
1.594160000000000082e+03
1.595240000000000009e+03
1.596319999999999936e+03
1.597400000000000091e+03
1.598480000000000018e+03
1.599559999999999945e+03
