4.012459999999999809e+02
4.026009999999999991e+02
4.039560000000000173e+02
4.053100000000000023e+02
4.066650000000000205e+02
4.080179999999999723e+02
4.093720000000000141e+02
4.107250000000000227e+02
4.120779999999999745e+02
4.134309999999999832e+02
4.147830000000000155e+02
4.161340000000000146e+02
4.174859999999999900e+02
4.188369999999999891e+02
4.201890000000000214e+02
4.215389999999999873e+02
4.228899999999999864e+02
4.242400000000000091e+02
4.255889999999999986e+02
4.269390000000000214e+02
4.282869999999999777e+02
4.296360000000000241e+02
4.309839999999999804e+02
4.323319999999999936e+02
4.336800000000000068e+02
4.350280000000000200e+02
4.363740000000000236e+02
4.377210000000000036e+02
4.390679999999999836e+02
4.404139999999999873e+02
4.417599999999999909e+02
4.431059999999999945e+02
4.444499999999999886e+02
4.457959999999999923e+02
4.471399999999999864e+02
4.484839999999999804e+02
4.498279999999999745e+02
4.511720000000000255e+02
4.525149999999999864e+02
4.538580000000000041e+02
4.552010000000000218e+02
4.565430000000000064e+02
4.578849999999999909e+02
4.592269999999999754e+02
4.605679999999999836e+02
4.619089999999999918e+02
4.632500000000000000e+02
4.645899999999999750e+02
4.659300000000000068e+02
4.672699999999999818e+02
4.686089999999999804e+02
4.699479999999999791e+02
4.712869999999999777e+02
4.726250000000000000e+02
4.739639999999999986e+02
4.753020000000000209e+02
4.766390000000000100e+02
4.779769999999999754e+02
4.793140000000000214e+02
4.806490000000000009e+02
4.819859999999999900e+02
4.833220000000000027e+02
4.846580000000000155e+02
4.859920000000000186e+02
4.873279999999999745e+02
4.886630000000000109e+02
4.899959999999999809e+02
4.913310000000000173e+02
4.926650000000000205e+02
4.939979999999999905e+02
4.953310000000000173e+02
4.966639999999999873e+02
4.979970000000000141e+02
4.993279999999999745e+02
5.006610000000000014e+02
5.019920000000000186e+02
5.033229999999999791e+02
5.046539999999999964e+02
5.059850000000000136e+02
5.073149999999999977e+02
5.086440000000000055e+02
5.099750000000000227e+02
5.113039999999999736e+02
5.126330000000000382e+02
5.139610000000000127e+02
5.152899999999999636e+02
5.166180000000000518e+02
5.179450000000000500e+02
5.192730000000000246e+02
5.206000000000000227e+02
5.219270000000000209e+02
5.232530000000000427e+02
5.245789999999999509e+02
5.259049999999999727e+02
5.272309999999999945e+02
5.285560000000000400e+02
5.298809999999999718e+02
5.312050000000000409e+02
5.325299999999999727e+02
5.338529999999999518e+02
5.351770000000000209e+02
5.365009999999999764e+02
5.378229999999999791e+02
5.391470000000000482e+02
5.404679999999999609e+02
5.417910000000000537e+02
5.431119999999999663e+02
5.444339999999999691e+02
5.457549999999999955e+02
5.470760000000000218e+02
5.483970000000000482e+02
5.497160000000000082e+02
5.510370000000000346e+02
5.523559999999999945e+02
5.536749999999999545e+02
5.549950000000000045e+02
5.563129999999999882e+02
5.576319999999999482e+02
5.589500000000000455e+02
5.602670000000000528e+02
5.615839999999999463e+02
5.629020000000000437e+02
5.642179999999999609e+02
5.655349999999999682e+02
5.668509999999999991e+02
5.681670000000000300e+02
5.694819999999999709e+02
5.707980000000000018e+02
5.721130000000000564e+02
5.734279999999999973e+02
5.747419999999999618e+02
5.760549999999999500e+02
5.773690000000000282e+02
5.786829999999999927e+02
5.799950000000000045e+02
5.813079999999999927e+02
5.826209999999999809e+02
5.839329999999999927e+02
5.852450000000000045e+02
5.865560000000000400e+02
5.878680000000000518e+02
5.891779999999999973e+02
5.904890000000000327e+02
5.917989999999999782e+02
5.931100000000000136e+02
5.944189999999999827e+02
5.957279999999999518e+02
5.970380000000000109e+02
5.983460000000000036e+02
5.996539999999999964e+02
6.009619999999999891e+02
6.022709999999999582e+02
6.035779999999999745e+02
6.048849999999999909e+02
6.061920000000000073e+02
6.074990000000000236e+02
6.088049999999999500e+02
6.101109999999999900e+02
6.114170000000000300e+02
6.127219999999999800e+02
6.140270000000000437e+02
6.153319999999999936e+02
6.166359999999999673e+02
6.179400000000000546e+02
6.192440000000000282e+02
6.205470000000000255e+02
6.218509999999999991e+02
6.231530000000000200e+02
6.244560000000000173e+02
6.257590000000000146e+02
6.270599999999999454e+02
6.283619999999999663e+02
6.296639999999999873e+02
6.309640000000000555e+02
6.322659999999999627e+02
6.335650000000000546e+02
6.348659999999999854e+02
6.361660000000000537e+02
6.374650000000000318e+02
6.387649999999999864e+02
6.400629999999999882e+02
6.413619999999999663e+02
6.426599999999999682e+02
6.439579999999999700e+02
6.452559999999999718e+02
6.465529999999999973e+02
6.478500000000000227e+02
6.491470000000000482e+02
6.504429999999999836e+02
6.517400000000000091e+02
6.530359999999999445e+02
6.543310000000000173e+02
6.556269999999999527e+02
6.569210000000000491e+02
6.582160000000000082e+02
6.595099999999999909e+02
6.608039999999999736e+02
6.620979999999999563e+02
6.633920000000000528e+02
6.646839999999999691e+02
6.659769999999999754e+02
6.672699999999999818e+02
6.685620000000000118e+02
6.698540000000000418e+02
6.711459999999999582e+02
6.724360000000000355e+02
6.737279999999999518e+02
6.750180000000000291e+02
6.763089999999999691e+02
6.775990000000000464e+02
6.788890000000000100e+02
6.801779999999999973e+02
6.814669999999999845e+02
6.827559999999999718e+02
6.840449999999999591e+02
6.853329999999999700e+02
6.866209999999999809e+02
6.879089999999999918e+02
6.891960000000000264e+02
6.904829999999999472e+02
6.917699999999999818e+02
6.930560000000000400e+02
6.943419999999999845e+02
6.956280000000000427e+02
6.969139999999999873e+02
6.981989999999999554e+02
6.994840000000000373e+02
7.007690000000000055e+02
7.020529999999999973e+02
7.033369999999999891e+02
7.046209999999999809e+02
7.059039999999999964e+02
7.071870000000000118e+02
7.084700000000000273e+02
7.097530000000000427e+02
7.110349999999999682e+02
7.123170000000000073e+02
7.135990000000000464e+02
7.148799999999999955e+02
7.161609999999999445e+02
7.174420000000000073e+02
7.187229999999999563e+02
7.200019999999999527e+02
7.212820000000000391e+02
7.225620000000000118e+02
7.238410000000000082e+02
7.251200000000000045e+02
7.263990000000000009e+02
7.276770000000000209e+02
7.289550000000000409e+02
7.302319999999999709e+02
7.315099999999999909e+02
7.327870000000000346e+02
7.340639999999999645e+02
7.353410000000000082e+02
7.366169999999999618e+02
7.378930000000000291e+02
7.391689999999999827e+02
7.404439999999999600e+02
7.417190000000000509e+02
7.429940000000000282e+02
7.442690000000000055e+02
7.455420000000000300e+02
7.468160000000000309e+02
7.480900000000000318e+02
7.493630000000000564e+02
7.506359999999999673e+02
7.519089999999999918e+02
7.531810000000000400e+02
7.544529999999999745e+02
7.557250000000000227e+02
7.569959999999999809e+02
7.582680000000000291e+02
7.595380000000000109e+02
7.608089999999999691e+02
7.620789999999999509e+02
7.633500000000000227e+02
7.646190000000000282e+02
7.658880000000000337e+02
7.671580000000000155e+02
7.684270000000000209e+02
7.696950000000000500e+02
7.709629999999999654e+02
7.722319999999999709e+02
7.734990000000000236e+02
7.747659999999999627e+02
7.760330000000000155e+02
7.772999999999999545e+02
7.785660000000000309e+02
7.798329999999999700e+02
7.810979999999999563e+02
7.823640000000000327e+02
7.836290000000000191e+02
7.848949999999999818e+02
7.861589999999999918e+02
7.874230000000000018e+02
7.886870000000000118e+02
7.899510000000000218e+02
7.912140000000000555e+02
7.924779999999999518e+02
7.937409999999999854e+02
7.950030000000000427e+02
7.962659999999999627e+02
7.975270000000000437e+02
7.987889999999999873e+02
8.000499999999999545e+02
8.013120000000000118e+02
8.025729999999999791e+02
8.038339999999999463e+02
8.050940000000000509e+02
8.063529999999999518e+02
8.076140000000000327e+02
8.088730000000000473e+02
8.101319999999999482e+02
8.113899999999999864e+02
8.126490000000000009e+02
8.139070000000000391e+02
8.151649999999999636e+02
8.164230000000000018e+02
8.176799999999999500e+02
8.189370000000000118e+02
8.201939999999999600e+02
8.214510000000000218e+02
8.227060000000000173e+02
8.239619999999999891e+02
8.252179999999999609e+02
8.264729999999999563e+02
8.277279999999999518e+02
8.289829999999999472e+02
8.302369999999999663e+02
8.314909999999999854e+02
8.327459999999999809e+02
8.339990000000000236e+02
8.352519999999999527e+02
8.365049999999999955e+02
8.377580000000000382e+02
8.390099999999999909e+02
8.402619999999999436e+02
8.415140000000000100e+02
8.427659999999999627e+02
8.440159999999999627e+02
8.452670000000000528e+02
8.465180000000000291e+02
8.477680000000000291e+02
8.490180000000000291e+02
8.502680000000000291e+02
8.515170000000000528e+02
8.527670000000000528e+02
8.540159999999999627e+02
8.552640000000000100e+02
8.565130000000000337e+02
8.577609999999999673e+02
8.590080000000000382e+02
8.602559999999999718e+02
8.615030000000000427e+02
8.627500000000000000e+02
8.639959999999999809e+02
8.652419999999999618e+02
8.664880000000000564e+02
8.677340000000000373e+02
8.689790000000000418e+02
8.702240000000000464e+02
8.714700000000000273e+02
8.727140000000000555e+02
8.739579999999999700e+02
8.752019999999999982e+02
8.764460000000000264e+02
8.776889999999999645e+02
8.789320000000000164e+02
8.801749999999999545e+02
8.814180000000000064e+02
8.826599999999999682e+02
8.839009999999999536e+02
8.851430000000000291e+02
8.863849999999999909e+02
8.876250000000000000e+02
8.888659999999999854e+02
8.901069999999999709e+02
8.913469999999999800e+02
8.925869999999999891e+02
8.938269999999999982e+02
8.950660000000000309e+02
8.963049999999999500e+02
8.975439999999999827e+02
8.987830000000000155e+02
9.000209999999999582e+02
9.012590000000000146e+02
9.024959999999999809e+02
9.037329999999999472e+02
9.049710000000000036e+02
9.062079999999999700e+02
9.074429999999999836e+02
9.086799999999999500e+02
9.099160000000000537e+02
9.111509999999999536e+02
9.123869999999999436e+02
9.136209999999999809e+02
9.148569999999999709e+02
9.160910000000000082e+02
9.173250000000000455e+02
9.185589999999999691e+02
9.197930000000000064e+02
9.210259999999999536e+02
9.222590000000000146e+02
9.234909999999999854e+02
9.247240000000000464e+02
9.259560000000000173e+02
9.271879999999999882e+02
9.284199999999999591e+02
9.296509999999999536e+02
9.308819999999999482e+02
9.321130000000000564e+02
9.333429999999999609e+02
9.345729999999999791e+02
9.358029999999999973e+02
9.370330000000000155e+02
9.382619999999999436e+02
9.394919999999999618e+02
9.407210000000000036e+02
9.419489999999999554e+02
9.431770000000000209e+02
9.444049999999999727e+02
9.456330000000000382e+02
9.468600000000000136e+02
9.480869999999999891e+02
9.493129999999999882e+02
9.505399999999999636e+02
9.517670000000000528e+02
9.529919999999999618e+02
9.542179999999999609e+02
9.554439999999999600e+02
9.566680000000000064e+02
9.578940000000000055e+02
9.591180000000000518e+02
9.603419999999999845e+02
9.615660000000000309e+02
9.627899999999999636e+02
9.640130000000000337e+02
9.652359999999999900e+02
9.664589999999999463e+02
9.676810000000000400e+02
9.689039999999999964e+02
9.701259999999999764e+02
9.713469999999999800e+02
9.725689999999999600e+02
9.737899999999999636e+02
9.750109999999999673e+02
9.762319999999999709e+02
9.774510000000000218e+02
9.786720000000000255e+02
9.798909999999999627e+02
9.811109999999999900e+02
9.823300000000000409e+02
9.835489999999999782e+02
9.847680000000000291e+02
9.859859999999999900e+02
9.872039999999999509e+02
9.884210000000000491e+02
9.896390000000000100e+02
9.908559999999999945e+02
9.920729999999999791e+02
9.932899999999999636e+02
9.945059999999999718e+02
9.957219999999999800e+02
9.969379999999999882e+02
9.981539999999999964e+02
9.993690000000000282e+02
1.000580000000000041e+03
1.001799999999999955e+03
1.003009999999999991e+03
1.004230000000000018e+03
1.005440000000000055e+03
1.006649999999999977e+03
1.007870000000000005e+03
1.009080000000000041e+03
1.010289999999999964e+03
1.011509999999999991e+03
1.012720000000000027e+03
1.013929999999999950e+03
1.015139999999999986e+03
1.016350000000000023e+03
1.017559999999999945e+03
1.018769999999999982e+03
1.019980000000000018e+03
1.021200000000000045e+03
1.022399999999999977e+03
1.023610000000000014e+03
1.024819999999999936e+03
1.026029999999999973e+03
1.027240000000000009e+03
1.028450000000000045e+03
1.029660000000000082e+03
1.030869999999999891e+03
1.032069999999999936e+03
1.033279999999999973e+03
1.034490000000000009e+03
1.035700000000000045e+03
1.036900000000000091e+03
1.038109999999999900e+03
1.039309999999999945e+03
1.040519999999999982e+03
1.041730000000000018e+03
1.042930000000000064e+03
1.044140000000000100e+03
1.045339999999999918e+03
1.046539999999999964e+03
1.047750000000000000e+03
1.048950000000000045e+03
1.050160000000000082e+03
1.051359999999999900e+03
1.052559999999999945e+03
1.053759999999999991e+03
1.054970000000000027e+03
1.056170000000000073e+03
1.057369999999999891e+03
1.058569999999999936e+03
1.059769999999999982e+03
1.060980000000000018e+03
1.062180000000000064e+03
1.063380000000000109e+03
1.064579999999999927e+03
1.065779999999999973e+03
1.066980000000000018e+03
1.068180000000000064e+03
1.069380000000000109e+03
1.070569999999999936e+03
1.071769999999999982e+03
1.072970000000000027e+03
1.074170000000000073e+03
1.075369999999999891e+03
1.076559999999999945e+03
1.077759999999999991e+03
1.078960000000000036e+03
1.080150000000000091e+03
1.081349999999999909e+03
1.082549999999999955e+03
1.083740000000000009e+03
1.084940000000000055e+03
1.086130000000000109e+03
1.087329999999999927e+03
1.088519999999999982e+03
1.089720000000000027e+03
1.090910000000000082e+03
1.092109999999999900e+03
1.093299999999999955e+03
1.094490000000000009e+03
1.095690000000000055e+03
1.096880000000000109e+03
1.098069999999999936e+03
1.099259999999999991e+03
1.100460000000000036e+03
1.101650000000000091e+03
1.102839999999999918e+03
1.104029999999999973e+03
1.105220000000000027e+03
1.106410000000000082e+03
1.107599999999999909e+03
1.108789999999999964e+03
1.109980000000000018e+03
1.111170000000000073e+03
1.112359999999999900e+03
1.113549999999999955e+03
1.114740000000000009e+03
1.115930000000000064e+03
1.117109999999999900e+03
1.118299999999999955e+03
1.119490000000000009e+03
1.120680000000000064e+03
1.121869999999999891e+03
1.123049999999999955e+03
1.124240000000000009e+03
1.125420000000000073e+03
1.126609999999999900e+03
1.127799999999999955e+03
1.128980000000000018e+03
1.130170000000000073e+03
1.131349999999999909e+03
1.132539999999999964e+03
1.133720000000000027e+03
1.134910000000000082e+03
1.136089999999999918e+03
1.137269999999999982e+03
1.138460000000000036e+03
1.139640000000000100e+03
1.140819999999999936e+03
1.142000000000000000e+03
1.143190000000000055e+03
1.144369999999999891e+03
1.145549999999999955e+03
1.146730000000000018e+03
1.147910000000000082e+03
1.149089999999999918e+03
1.150269999999999982e+03
1.151450000000000045e+03
1.152630000000000109e+03
1.153809999999999945e+03
1.154990000000000009e+03
1.156170000000000073e+03
1.157349999999999909e+03
1.158529999999999973e+03
1.159710000000000036e+03
1.160890000000000100e+03
1.162059999999999945e+03
1.163240000000000009e+03
1.164420000000000073e+03
1.165599999999999909e+03
1.166769999999999982e+03
1.167950000000000045e+03
1.169130000000000109e+03
1.170299999999999955e+03
1.171480000000000018e+03
1.172650000000000091e+03
1.173829999999999927e+03
1.175000000000000000e+03
1.176180000000000064e+03
1.177349999999999909e+03
1.178529999999999973e+03
1.179700000000000045e+03
1.180869999999999891e+03
1.182049999999999955e+03
1.183220000000000027e+03
1.184390000000000100e+03
1.185569999999999936e+03
1.186740000000000009e+03
1.187910000000000082e+03
1.189079999999999927e+03
1.190250000000000000e+03
1.191420000000000073e+03
1.192599999999999909e+03
1.193769999999999982e+03
1.194940000000000055e+03
1.196109999999999900e+03
1.197279999999999973e+03
1.198450000000000045e+03
1.199619999999999891e+03
1.200779999999999973e+03
1.201950000000000045e+03
1.203119999999999891e+03
1.204289999999999964e+03
1.205460000000000036e+03
1.206630000000000109e+03
1.207789999999999964e+03
1.208960000000000036e+03
1.210130000000000109e+03
1.211289999999999964e+03
1.212460000000000036e+03
1.213630000000000109e+03
1.214789999999999964e+03
1.215960000000000036e+03
1.217119999999999891e+03
1.218289999999999964e+03
1.219450000000000045e+03
1.220619999999999891e+03
1.221779999999999973e+03
1.222950000000000045e+03
1.224109999999999900e+03
1.225269999999999982e+03
1.226440000000000055e+03
1.227599999999999909e+03
1.228759999999999991e+03
1.229920000000000073e+03
1.231089999999999918e+03
1.232250000000000000e+03
1.233410000000000082e+03
1.234569999999999936e+03
1.235730000000000018e+03
1.236890000000000100e+03
1.238049999999999955e+03
1.239210000000000036e+03
1.240369999999999891e+03
1.241529999999999973e+03
1.242690000000000055e+03
1.243849999999999909e+03
1.245009999999999991e+03
1.246170000000000073e+03
1.247329999999999927e+03
1.248490000000000009e+03
1.249650000000000091e+03
1.250799999999999955e+03
1.251960000000000036e+03
1.253119999999999891e+03
1.254269999999999982e+03
1.255430000000000064e+03
1.256589999999999918e+03
1.257740000000000009e+03
1.258900000000000091e+03
1.260049999999999955e+03
1.261210000000000036e+03
1.262359999999999900e+03
1.263519999999999982e+03
1.264670000000000073e+03
1.265829999999999927e+03
1.266980000000000018e+03
1.268140000000000100e+03
1.269289999999999964e+03
1.270440000000000055e+03
1.271599999999999909e+03
1.272750000000000000e+03
1.273900000000000091e+03
1.275049999999999955e+03
1.276210000000000036e+03
1.277359999999999900e+03
1.278509999999999991e+03
1.279660000000000082e+03
1.280809999999999945e+03
1.281960000000000036e+03
1.283109999999999900e+03
1.284259999999999991e+03
1.285410000000000082e+03
1.286559999999999945e+03
1.287710000000000036e+03
1.288859999999999900e+03
1.290009999999999991e+03
1.291160000000000082e+03
1.292299999999999955e+03
1.293450000000000045e+03
1.294599999999999909e+03
1.295750000000000000e+03
1.296890000000000100e+03
1.298039999999999964e+03
1.299190000000000055e+03
1.300329999999999927e+03
1.301480000000000018e+03
1.302630000000000109e+03
1.303769999999999982e+03
1.304920000000000073e+03
1.306059999999999945e+03
1.307210000000000036e+03
1.308349999999999909e+03
1.309500000000000000e+03
1.310640000000000100e+03
1.311789999999999964e+03
1.312930000000000064e+03
1.314069999999999936e+03
1.315210000000000036e+03
1.316359999999999900e+03
1.317500000000000000e+03
1.318640000000000100e+03
1.319779999999999973e+03
1.320930000000000064e+03
1.322069999999999936e+03
1.323210000000000036e+03
1.324349999999999909e+03
1.325490000000000009e+03
1.326630000000000109e+03
1.327769999999999982e+03
1.328910000000000082e+03
1.330049999999999955e+03
1.331190000000000055e+03
1.332329999999999927e+03
1.333470000000000027e+03
1.334609999999999900e+03
1.335750000000000000e+03
1.336880000000000109e+03
1.338019999999999982e+03
1.339160000000000082e+03
1.340299999999999955e+03
1.341430000000000064e+03
1.342569999999999936e+03
1.343710000000000036e+03
1.344839999999999918e+03
1.345980000000000018e+03
1.347119999999999891e+03
1.348250000000000000e+03
1.349390000000000100e+03
1.350519999999999982e+03
1.351660000000000082e+03
1.352789999999999964e+03
1.353930000000000064e+03
1.355059999999999945e+03
1.356190000000000055e+03
1.357329999999999927e+03
1.358460000000000036e+03
1.359589999999999918e+03
1.360730000000000018e+03
1.361859999999999900e+03
1.362990000000000009e+03
1.364119999999999891e+03
1.365250000000000000e+03
1.366390000000000100e+03
1.367519999999999982e+03
1.368650000000000091e+03
1.369779999999999973e+03
1.370910000000000082e+03
1.372039999999999964e+03
1.373170000000000073e+03
1.374299999999999955e+03
1.375430000000000064e+03
1.376559999999999945e+03
1.377690000000000055e+03
1.378809999999999945e+03
1.379940000000000055e+03
1.381069999999999936e+03
1.382200000000000045e+03
1.383329999999999927e+03
1.384450000000000045e+03
1.385579999999999927e+03
1.386710000000000036e+03
1.387839999999999918e+03
1.388960000000000036e+03
1.390089999999999918e+03
1.391210000000000036e+03
1.392339999999999918e+03
1.393460000000000036e+03
1.394589999999999918e+03
1.395710000000000036e+03
1.396839999999999918e+03
1.397960000000000036e+03
1.399089999999999918e+03
1.400210000000000036e+03
1.401339999999999918e+03
1.402460000000000036e+03
1.403579999999999927e+03
1.404700000000000045e+03
1.405829999999999927e+03
1.406950000000000045e+03
1.408069999999999936e+03
1.409190000000000055e+03
1.410319999999999936e+03
1.411440000000000055e+03
1.412559999999999945e+03
1.413680000000000064e+03
1.414799999999999955e+03
1.415920000000000073e+03
1.417039999999999964e+03
1.418160000000000082e+03
1.419279999999999973e+03
1.420400000000000091e+03
1.421519999999999982e+03
1.422640000000000100e+03
1.423750000000000000e+03
1.424869999999999891e+03
1.425990000000000009e+03
1.427109999999999900e+03
1.428230000000000018e+03
1.429339999999999918e+03
1.430460000000000036e+03
1.431579999999999927e+03
1.432690000000000055e+03
1.433809999999999945e+03
1.434930000000000064e+03
1.436039999999999964e+03
1.437160000000000082e+03
1.438269999999999982e+03
1.439390000000000100e+03
1.440500000000000000e+03
1.441619999999999891e+03
1.442730000000000018e+03
1.443849999999999909e+03
1.444960000000000036e+03
1.446069999999999936e+03
1.447190000000000055e+03
1.448299999999999955e+03
1.449410000000000082e+03
1.450519999999999982e+03
1.451640000000000100e+03
1.452750000000000000e+03
1.453859999999999900e+03
1.454970000000000027e+03
1.456079999999999927e+03
1.457190000000000055e+03
1.458299999999999955e+03
1.459420000000000073e+03
1.460529999999999973e+03
1.461640000000000100e+03
1.462750000000000000e+03
1.463859999999999900e+03
1.464970000000000027e+03
1.466069999999999936e+03
1.467180000000000064e+03
1.468289999999999964e+03
1.469400000000000091e+03
1.470509999999999991e+03
1.471619999999999891e+03
1.472720000000000027e+03
1.473829999999999927e+03
1.474940000000000055e+03
1.476039999999999964e+03
1.477150000000000091e+03
1.478259999999999991e+03
1.479359999999999900e+03
1.480470000000000027e+03
1.481569999999999936e+03
1.482680000000000064e+03
1.483779999999999973e+03
1.484890000000000100e+03
1.485990000000000009e+03
1.487099999999999909e+03
1.488200000000000045e+03
1.489309999999999945e+03
1.490410000000000082e+03
1.491509999999999991e+03
1.492619999999999891e+03
1.493720000000000027e+03
1.494819999999999936e+03
1.495920000000000073e+03
1.497029999999999973e+03
1.498130000000000109e+03
1.499230000000000018e+03
1.500329999999999927e+03
1.501430000000000064e+03
1.502529999999999973e+03
1.503630000000000109e+03
1.504730000000000018e+03
1.505829999999999927e+03
1.506930000000000064e+03
1.508029999999999973e+03
1.509130000000000109e+03
1.510230000000000018e+03
1.511329999999999927e+03
1.512430000000000064e+03
1.513529999999999973e+03
1.514630000000000109e+03
1.515720000000000027e+03
1.516819999999999936e+03
1.517920000000000073e+03
1.519019999999999982e+03
1.520109999999999900e+03
1.521210000000000036e+03
1.522309999999999945e+03
1.523400000000000091e+03
1.524500000000000000e+03
1.525589999999999918e+03
1.526690000000000055e+03
1.527779999999999973e+03
1.528880000000000109e+03
1.529980000000000018e+03
1.531069999999999936e+03
1.532160000000000082e+03
1.533259999999999991e+03
1.534349999999999909e+03
1.535440000000000055e+03
1.536539999999999964e+03
1.537630000000000109e+03
1.538720000000000027e+03
1.539819999999999936e+03
1.540910000000000082e+03
1.542000000000000000e+03
1.543089999999999918e+03
1.544180000000000064e+03
1.545279999999999973e+03
1.546369999999999891e+03
1.547460000000000036e+03
1.548549999999999955e+03
1.549640000000000100e+03
1.550730000000000018e+03
1.551819999999999936e+03
1.552910000000000082e+03
1.554000000000000000e+03
1.555089999999999918e+03
1.556180000000000064e+03
1.557259999999999991e+03
1.558349999999999909e+03
1.559440000000000055e+03
1.560529999999999973e+03
1.561619999999999891e+03
1.562700000000000045e+03
1.563789999999999964e+03
1.564880000000000109e+03
1.565960000000000036e+03
1.567049999999999955e+03
1.568140000000000100e+03
1.569220000000000027e+03
1.570309999999999945e+03
1.571390000000000100e+03
1.572480000000000018e+03
1.573559999999999945e+03
1.574650000000000091e+03
1.575730000000000018e+03
1.576819999999999936e+03
1.577900000000000091e+03
1.578990000000000009e+03
1.580069999999999936e+03
1.581150000000000091e+03
1.582240000000000009e+03
1.583319999999999936e+03
1.584400000000000091e+03
1.585480000000000018e+03
1.586569999999999936e+03
1.587650000000000091e+03
1.588730000000000018e+03
1.589809999999999945e+03
1.590890000000000100e+03
1.591970000000000027e+03
1.593049999999999955e+03
1.594130000000000109e+03
1.595210000000000036e+03
1.596289999999999964e+03
1.597369999999999891e+03
1.598450000000000045e+03
1.599529999999999973e+03
