4.012230000000000132e+02
4.025769999999999982e+02
4.039329999999999927e+02
4.052869999999999777e+02
4.066410000000000196e+02
4.079950000000000045e+02
4.093480000000000132e+02
4.107010000000000218e+02
4.120539999999999736e+02
4.134069999999999823e+02
4.147590000000000146e+02
4.161109999999999900e+02
4.174630000000000223e+02
4.188140000000000214e+02
4.201650000000000205e+02
4.215149999999999864e+02
4.228659999999999854e+02
4.242160000000000082e+02
4.255649999999999977e+02
4.269150000000000205e+02
4.282640000000000100e+02
4.296129999999999995e+02
4.309610000000000127e+02
4.323090000000000259e+02
4.336569999999999823e+02
4.350040000000000191e+02
4.363509999999999991e+02
4.376979999999999791e+02
4.390450000000000159e+02
4.403910000000000196e+02
4.417370000000000232e+02
4.430830000000000268e+02
4.444270000000000209e+02
4.457730000000000246e+02
4.471170000000000186e+02
4.484610000000000127e+02
4.498050000000000068e+02
4.511490000000000009e+02
4.524920000000000186e+02
4.538340000000000032e+02
4.551779999999999973e+02
4.565199999999999818e+02
4.578609999999999900e+02
4.592040000000000077e+02
4.605450000000000159e+02
4.618860000000000241e+02
4.632259999999999991e+02
4.645659999999999741e+02
4.659069999999999823e+02
4.672470000000000141e+02
4.685860000000000127e+02
4.699250000000000114e+02
4.712640000000000100e+02
4.726030000000000086e+02
4.739409999999999741e+02
4.752789999999999964e+02
4.766159999999999854e+02
4.779540000000000077e+02
4.792900000000000205e+02
4.806259999999999764e+02
4.819630000000000223e+02
4.832989999999999782e+02
4.846349999999999909e+02
4.859700000000000273e+02
4.873050000000000068e+02
4.886399999999999864e+02
4.899739999999999895e+02
4.913079999999999927e+02
4.926410000000000196e+02
4.939750000000000227e+02
4.953090000000000259e+02
4.966410000000000196e+02
4.979739999999999895e+02
4.993059999999999832e+02
5.006370000000000005e+02
5.019689999999999941e+02
5.033000000000000114e+02
5.046309999999999718e+02
5.059619999999999891e+02
5.072919999999999732e+02
5.086220000000000141e+02
5.099510000000000218e+02
5.112810000000000059e+02
5.126100000000000136e+02
5.139379999999999882e+02
5.152670000000000528e+02
5.165950000000000273e+02
5.179220000000000255e+02
5.192500000000000000e+02
5.205769999999999982e+02
5.219039999999999964e+02
5.232300000000000182e+02
5.245570000000000164e+02
5.258830000000000382e+02
5.272069999999999936e+02
5.285330000000000155e+02
5.298579999999999472e+02
5.311829999999999927e+02
5.325069999999999482e+02
5.338310000000000173e+02
5.351549999999999727e+02
5.364779999999999518e+02
5.378010000000000446e+02
5.391240000000000236e+02
5.404460000000000264e+02
5.417680000000000291e+02
5.430900000000000318e+02
5.444120000000000346e+02
5.457319999999999709e+02
5.470539999999999736e+02
5.483740000000000236e+02
5.496939999999999600e+02
5.510140000000000100e+02
5.523339999999999463e+02
5.536530000000000200e+02
5.549710000000000036e+02
5.562910000000000537e+02
5.576090000000000373e+02
5.589270000000000209e+02
5.602450000000000045e+02
5.615620000000000118e+02
5.628790000000000191e+02
5.641960000000000264e+02
5.655119999999999436e+02
5.668279999999999745e+02
5.681440000000000055e+02
5.694600000000000364e+02
5.707749999999999773e+02
5.720900000000000318e+02
5.734049999999999727e+02
5.747190000000000509e+02
5.760330000000000155e+02
5.773469999999999800e+02
5.786599999999999682e+02
5.799729999999999563e+02
5.812859999999999445e+02
5.825990000000000464e+02
5.839099999999999682e+02
5.852229999999999563e+02
5.865339999999999918e+02
5.878450000000000273e+02
5.891559999999999491e+02
5.904669999999999845e+02
5.917770000000000437e+02
5.930869999999999891e+02
5.943959999999999582e+02
5.957060000000000173e+02
5.970149999999999864e+02
5.983239999999999554e+02
5.996319999999999482e+02
6.009400000000000546e+02
6.022469999999999573e+02
6.035560000000000400e+02
6.048630000000000564e+02
6.061699999999999591e+02
6.074759999999999991e+02
6.087820000000000391e+02
6.100879999999999654e+02
6.113940000000000055e+02
6.126989999999999554e+02
6.140049999999999955e+02
6.153089999999999691e+02
6.166130000000000564e+02
6.179170000000000300e+02
6.192210000000000036e+02
6.205249999999999773e+02
6.218279999999999745e+02
6.231309999999999718e+02
6.244339999999999691e+02
6.257359999999999900e+02
6.270380000000000109e+02
6.283400000000000318e+02
6.296409999999999627e+02
6.309420000000000073e+02
6.322419999999999618e+02
6.335430000000000064e+02
6.348429999999999609e+02
6.361430000000000291e+02
6.374420000000000073e+02
6.387419999999999618e+02
6.400410000000000537e+02
6.413390000000000555e+02
6.426369999999999436e+02
6.439360000000000355e+02
6.452329999999999472e+02
6.465309999999999491e+02
6.478279999999999745e+02
6.491240000000000236e+02
6.504210000000000491e+02
6.517169999999999845e+02
6.530130000000000337e+02
6.543079999999999927e+02
6.556029999999999518e+02
6.568980000000000246e+02
6.581929999999999836e+02
6.594880000000000564e+02
6.607820000000000391e+02
6.620760000000000218e+02
6.633690000000000282e+02
6.646620000000000346e+02
6.659550000000000409e+02
6.672480000000000473e+02
6.685389999999999873e+02
6.698319999999999936e+02
6.711230000000000473e+02
6.724139999999999873e+02
6.737060000000000173e+02
6.749959999999999809e+02
6.762870000000000346e+02
6.775760000000000218e+02
6.788669999999999618e+02
6.801559999999999491e+02
6.814450000000000500e+02
6.827340000000000373e+02
6.840230000000000246e+02
6.853110000000000355e+02
6.865979999999999563e+02
6.878869999999999436e+02
6.891739999999999782e+02
6.904610000000000127e+02
6.917469999999999573e+02
6.930339999999999918e+02
6.943200000000000500e+02
6.956059999999999945e+02
6.968909999999999627e+02
6.981770000000000209e+02
6.994619999999999891e+02
7.007459999999999809e+02
7.020309999999999491e+02
7.033150000000000546e+02
7.045990000000000464e+02
7.058819999999999482e+02
7.071649999999999636e+02
7.084479999999999791e+02
7.097309999999999945e+02
7.110130000000000337e+02
7.122949999999999591e+02
7.135760000000000218e+02
7.148579999999999472e+02
7.161390000000000100e+02
7.174199999999999591e+02
7.187000000000000455e+02
7.199800000000000182e+02
7.212599999999999909e+02
7.225399999999999636e+02
7.238189999999999600e+02
7.250969999999999800e+02
7.263769999999999527e+02
7.276549999999999727e+02
7.289329999999999927e+02
7.302100000000000364e+02
7.314880000000000564e+02
7.327659999999999627e+02
7.340420000000000300e+02
7.353189999999999600e+02
7.365950000000000273e+02
7.378709999999999809e+02
7.391470000000000482e+02
7.404220000000000255e+02
7.416970000000000027e+02
7.429719999999999800e+02
7.442459999999999809e+02
7.455199999999999818e+02
7.467939999999999827e+02
7.480679999999999836e+02
7.493410000000000082e+02
7.506140000000000327e+02
7.518869999999999436e+02
7.531589999999999918e+02
7.544310000000000400e+02
7.557029999999999745e+02
7.569740000000000464e+02
7.582459999999999809e+02
7.595159999999999627e+02
7.607870000000000346e+02
7.620570000000000164e+02
7.633279999999999745e+02
7.645969999999999800e+02
7.658659999999999854e+02
7.671359999999999673e+02
7.684049999999999727e+02
7.696730000000000018e+02
7.709410000000000309e+02
7.722089999999999463e+02
7.734769999999999754e+02
7.747440000000000282e+02
7.760109999999999673e+02
7.772780000000000200e+02
7.785449999999999591e+02
7.798110000000000355e+02
7.810769999999999982e+02
7.823419999999999845e+02
7.836079999999999472e+02
7.848719999999999573e+02
7.861369999999999436e+02
7.874009999999999536e+02
7.886660000000000537e+02
7.899299999999999500e+02
7.911920000000000073e+02
7.924560000000000173e+02
7.937190000000000509e+02
7.949809999999999945e+02
7.962440000000000282e+02
7.975059999999999718e+02
7.987680000000000291e+02
8.000289999999999964e+02
8.012899999999999636e+02
8.025510000000000446e+02
8.038110000000000355e+02
8.050720000000000027e+02
8.063319999999999936e+02
8.075910000000000082e+02
8.088509999999999991e+02
8.101100000000000136e+02
8.113690000000000282e+02
8.126269999999999527e+02
8.138849999999999909e+02
8.151430000000000291e+02
8.164009999999999536e+02
8.176589999999999918e+02
8.189160000000000537e+02
8.201720000000000255e+02
8.214279999999999973e+02
8.226839999999999691e+02
8.239400000000000546e+02
8.251960000000000264e+02
8.264510000000000218e+02
8.277069999999999936e+02
8.289610000000000127e+02
8.302150000000000318e+02
8.314700000000000273e+02
8.327229999999999563e+02
8.339769999999999754e+02
8.352300000000000182e+02
8.364829999999999472e+02
8.377359999999999900e+02
8.389880000000000564e+02
8.402409999999999854e+02
8.414919999999999618e+02
8.427440000000000282e+02
8.439950000000000045e+02
8.452450000000000045e+02
8.464959999999999809e+02
8.477469999999999573e+02
8.489969999999999573e+02
8.502459999999999809e+02
8.514959999999999809e+02
8.527450000000000045e+02
8.539940000000000282e+02
8.552430000000000518e+02
8.564909999999999854e+02
8.577390000000000327e+02
8.589869999999999663e+02
8.602340000000000373e+02
8.614809999999999945e+02
8.627279999999999518e+02
8.639740000000000464e+02
8.652210000000000036e+02
8.664669999999999845e+02
8.677129999999999654e+02
8.689579999999999700e+02
8.702029999999999745e+02
8.714479999999999791e+02
8.726920000000000073e+02
8.739370000000000118e+02
8.751799999999999500e+02
8.764239999999999782e+02
8.776670000000000300e+02
8.789109999999999445e+02
8.801530000000000200e+02
8.813959999999999582e+02
8.826380000000000337e+02
8.838799999999999955e+02
8.851219999999999573e+02
8.863630000000000564e+02
8.876040000000000418e+02
8.888450000000000273e+02
8.900850000000000364e+02
8.913260000000000218e+02
8.925660000000000309e+02
8.938049999999999500e+02
8.950449999999999591e+02
8.962839999999999918e+02
8.975230000000000246e+02
8.987609999999999673e+02
8.999990000000000236e+02
9.012369999999999663e+02
9.024740000000000464e+02
9.037119999999999891e+02
9.049489999999999554e+02
9.061860000000000355e+02
9.074220000000000255e+02
9.086580000000000155e+02
9.098949999999999818e+02
9.111299999999999955e+02
9.123650000000000091e+02
9.136000000000000227e+02
9.148350000000000364e+02
9.160689999999999600e+02
9.173039999999999736e+02
9.185380000000000109e+02
9.197709999999999582e+02
9.210049999999999955e+02
9.222380000000000564e+02
9.234700000000000273e+02
9.247029999999999745e+02
9.259349999999999454e+02
9.271670000000000300e+02
9.283980000000000246e+02
9.296299999999999955e+02
9.308609999999999900e+02
9.320910000000000082e+02
9.333220000000000027e+02
9.345520000000000209e+02
9.357820000000000391e+02
9.370119999999999436e+02
9.382409999999999854e+02
9.394700000000000273e+02
9.406989999999999554e+02
9.419270000000000209e+02
9.431559999999999491e+02
9.443840000000000146e+02
9.456119999999999663e+02
9.468390000000000555e+02
9.480660000000000309e+02
9.492920000000000300e+02
9.505190000000000055e+02
9.517450000000000045e+02
9.529710000000000036e+02
9.541970000000000027e+02
9.554220000000000255e+02
9.566470000000000482e+02
9.578719999999999573e+02
9.590969999999999800e+02
9.603210000000000264e+02
9.615449999999999591e+02
9.627680000000000291e+02
9.639919999999999618e+02
9.652150000000000318e+02
9.664379999999999882e+02
9.676599999999999682e+02
9.688830000000000382e+02
9.701050000000000182e+02
9.713260000000000218e+02
9.725480000000000018e+02
9.737690000000000055e+02
9.749900000000000091e+02
9.762110000000000127e+02
9.774299999999999500e+02
9.786499999999999773e+02
9.798700000000000045e+02
9.810900000000000318e+02
9.823089999999999691e+02
9.835280000000000200e+02
9.847459999999999809e+02
9.859650000000000318e+02
9.871829999999999927e+02
9.883999999999999773e+02
9.896180000000000518e+02
9.908350000000000364e+02
9.920520000000000209e+02
9.932690000000000055e+02
9.944850000000000136e+02
9.957010000000000218e+02
9.969170000000000300e+02
9.981319999999999482e+02
9.993479999999999563e+02
1.000559999999999945e+03
1.001779999999999973e+03
1.002990000000000009e+03
1.004210000000000036e+03
1.005419999999999959e+03
1.006629999999999995e+03
1.007850000000000023e+03
1.009059999999999945e+03
1.010269999999999982e+03
1.011480000000000018e+03
1.012700000000000045e+03
1.013909999999999968e+03
1.015120000000000005e+03
1.016330000000000041e+03
1.017539999999999964e+03
1.018750000000000000e+03
1.019960000000000036e+03
1.021169999999999959e+03
1.022379999999999995e+03
1.023590000000000032e+03
1.024799999999999955e+03
1.026009999999999991e+03
1.027220000000000027e+03
1.028430000000000064e+03
1.029640000000000100e+03
1.030849999999999909e+03
1.032049999999999955e+03
1.033259999999999991e+03
1.034470000000000027e+03
1.035670000000000073e+03
1.036880000000000109e+03
1.038089999999999918e+03
1.039289999999999964e+03
1.040500000000000000e+03
1.041700000000000045e+03
1.042910000000000082e+03
1.044109999999999900e+03
1.045319999999999936e+03
1.046519999999999982e+03
1.047730000000000018e+03
1.048930000000000064e+03
1.050140000000000100e+03
1.051339999999999918e+03
1.052539999999999964e+03
1.053740000000000009e+03
1.054950000000000045e+03
1.056150000000000091e+03
1.057349999999999909e+03
1.058549999999999955e+03
1.059750000000000000e+03
1.060950000000000045e+03
1.062160000000000082e+03
1.063359999999999900e+03
1.064559999999999945e+03
1.065759999999999991e+03
1.066960000000000036e+03
1.068150000000000091e+03
1.069349999999999909e+03
1.070549999999999955e+03
1.071750000000000000e+03
1.072950000000000045e+03
1.074150000000000091e+03
1.075349999999999909e+03
1.076539999999999964e+03
1.077740000000000009e+03
1.078940000000000055e+03
1.080130000000000109e+03
1.081329999999999927e+03
1.082529999999999973e+03
1.083720000000000027e+03
1.084920000000000073e+03
1.086109999999999900e+03
1.087309999999999945e+03
1.088500000000000000e+03
1.089700000000000045e+03
1.090890000000000100e+03
1.092089999999999918e+03
1.093279999999999973e+03
1.094470000000000027e+03
1.095670000000000073e+03
1.096859999999999900e+03
1.098049999999999955e+03
1.099240000000000009e+03
1.100430000000000064e+03
1.101630000000000109e+03
1.102819999999999936e+03
1.104009999999999991e+03
1.105200000000000045e+03
1.106390000000000100e+03
1.107579999999999927e+03
1.108769999999999982e+03
1.109960000000000036e+03
1.111150000000000091e+03
1.112339999999999918e+03
1.113529999999999973e+03
1.114720000000000027e+03
1.115910000000000082e+03
1.117089999999999918e+03
1.118279999999999973e+03
1.119470000000000027e+03
1.120660000000000082e+03
1.121839999999999918e+03
1.123029999999999973e+03
1.124220000000000027e+03
1.125400000000000091e+03
1.126589999999999918e+03
1.127779999999999973e+03
1.128960000000000036e+03
1.130150000000000091e+03
1.131329999999999927e+03
1.132519999999999982e+03
1.133700000000000045e+03
1.134880000000000109e+03
1.136069999999999936e+03
1.137250000000000000e+03
1.138430000000000064e+03
1.139619999999999891e+03
1.140799999999999955e+03
1.141980000000000018e+03
1.143170000000000073e+03
1.144349999999999909e+03
1.145529999999999973e+03
1.146710000000000036e+03
1.147890000000000100e+03
1.149069999999999936e+03
1.150250000000000000e+03
1.151430000000000064e+03
1.152609999999999900e+03
1.153789999999999964e+03
1.154970000000000027e+03
1.156150000000000091e+03
1.157329999999999927e+03
1.158509999999999991e+03
1.159690000000000055e+03
1.160869999999999891e+03
1.162039999999999964e+03
1.163220000000000027e+03
1.164400000000000091e+03
1.165579999999999927e+03
1.166750000000000000e+03
1.167930000000000064e+03
1.169109999999999900e+03
1.170279999999999973e+03
1.171460000000000036e+03
1.172630000000000109e+03
1.173809999999999945e+03
1.174980000000000018e+03
1.176160000000000082e+03
1.177329999999999927e+03
1.178509999999999991e+03
1.179680000000000064e+03
1.180849999999999909e+03
1.182029999999999973e+03
1.183200000000000045e+03
1.184369999999999891e+03
1.185549999999999955e+03
1.186720000000000027e+03
1.187890000000000100e+03
1.189059999999999945e+03
1.190230000000000018e+03
1.191400000000000091e+03
1.192579999999999927e+03
1.193750000000000000e+03
1.194920000000000073e+03
1.196089999999999918e+03
1.197259999999999991e+03
1.198430000000000064e+03
1.199599999999999909e+03
1.200759999999999991e+03
1.201930000000000064e+03
1.203099999999999909e+03
1.204269999999999982e+03
1.205440000000000055e+03
1.206609999999999900e+03
1.207769999999999982e+03
1.208940000000000055e+03
1.210109999999999900e+03
1.211269999999999982e+03
1.212440000000000055e+03
1.213609999999999900e+03
1.214769999999999982e+03
1.215940000000000055e+03
1.217099999999999909e+03
1.218269999999999982e+03
1.219430000000000064e+03
1.220599999999999909e+03
1.221759999999999991e+03
1.222930000000000064e+03
1.224089999999999918e+03
1.225250000000000000e+03
1.226420000000000073e+03
1.227579999999999927e+03
1.228740000000000009e+03
1.229900000000000091e+03
1.231069999999999936e+03
1.232230000000000018e+03
1.233390000000000100e+03
1.234549999999999955e+03
1.235710000000000036e+03
1.236869999999999891e+03
1.238029999999999973e+03
1.239190000000000055e+03
1.240349999999999909e+03
1.241509999999999991e+03
1.242670000000000073e+03
1.243829999999999927e+03
1.244990000000000009e+03
1.246150000000000091e+03
1.247309999999999945e+03
1.248470000000000027e+03
1.249630000000000109e+03
1.250779999999999973e+03
1.251940000000000055e+03
1.253099999999999909e+03
1.254250000000000000e+03
1.255410000000000082e+03
1.256569999999999936e+03
1.257720000000000027e+03
1.258880000000000109e+03
1.260029999999999973e+03
1.261190000000000055e+03
1.262339999999999918e+03
1.263500000000000000e+03
1.264650000000000091e+03
1.265809999999999945e+03
1.266960000000000036e+03
1.268119999999999891e+03
1.269269999999999982e+03
1.270420000000000073e+03
1.271579999999999927e+03
1.272730000000000018e+03
1.273880000000000109e+03
1.275029999999999973e+03
1.276190000000000055e+03
1.277339999999999918e+03
1.278490000000000009e+03
1.279640000000000100e+03
1.280789999999999964e+03
1.281940000000000055e+03
1.283089999999999918e+03
1.284240000000000009e+03
1.285390000000000100e+03
1.286539999999999964e+03
1.287690000000000055e+03
1.288839999999999918e+03
1.289990000000000009e+03
1.291140000000000100e+03
1.292279999999999973e+03
1.293430000000000064e+03
1.294579999999999927e+03
1.295730000000000018e+03
1.296869999999999891e+03
1.298019999999999982e+03
1.299170000000000073e+03
1.300309999999999945e+03
1.301460000000000036e+03
1.302609999999999900e+03
1.303750000000000000e+03
1.304900000000000091e+03
1.306039999999999964e+03
1.307190000000000055e+03
1.308329999999999927e+03
1.309480000000000018e+03
1.310619999999999891e+03
1.311769999999999982e+03
1.312910000000000082e+03
1.314049999999999955e+03
1.315190000000000055e+03
1.316339999999999918e+03
1.317480000000000018e+03
1.318619999999999891e+03
1.319759999999999991e+03
1.320910000000000082e+03
1.322049999999999955e+03
1.323190000000000055e+03
1.324329999999999927e+03
1.325470000000000027e+03
1.326609999999999900e+03
1.327750000000000000e+03
1.328890000000000100e+03
1.330029999999999973e+03
1.331170000000000073e+03
1.332309999999999945e+03
1.333450000000000045e+03
1.334589999999999918e+03
1.335730000000000018e+03
1.336859999999999900e+03
1.338000000000000000e+03
1.339140000000000100e+03
1.340279999999999973e+03
1.341410000000000082e+03
1.342549999999999955e+03
1.343690000000000055e+03
1.344819999999999936e+03
1.345960000000000036e+03
1.347099999999999909e+03
1.348230000000000018e+03
1.349369999999999891e+03
1.350500000000000000e+03
1.351640000000000100e+03
1.352769999999999982e+03
1.353910000000000082e+03
1.355039999999999964e+03
1.356170000000000073e+03
1.357309999999999945e+03
1.358440000000000055e+03
1.359569999999999936e+03
1.360710000000000036e+03
1.361839999999999918e+03
1.362970000000000027e+03
1.364099999999999909e+03
1.365230000000000018e+03
1.366369999999999891e+03
1.367500000000000000e+03
1.368630000000000109e+03
1.369759999999999991e+03
1.370890000000000100e+03
1.372019999999999982e+03
1.373150000000000091e+03
1.374279999999999973e+03
1.375410000000000082e+03
1.376539999999999964e+03
1.377670000000000073e+03
1.378799999999999955e+03
1.379920000000000073e+03
1.381049999999999955e+03
1.382180000000000064e+03
1.383309999999999945e+03
1.384440000000000055e+03
1.385559999999999945e+03
1.386690000000000055e+03
1.387819999999999936e+03
1.388940000000000055e+03
1.390069999999999936e+03
1.391190000000000055e+03
1.392319999999999936e+03
1.393440000000000055e+03
1.394569999999999936e+03
1.395690000000000055e+03
1.396819999999999936e+03
1.397940000000000055e+03
1.399069999999999936e+03
1.400190000000000055e+03
1.401319999999999936e+03
1.402440000000000055e+03
1.403559999999999945e+03
1.404690000000000055e+03
1.405809999999999945e+03
1.406930000000000064e+03
1.408049999999999955e+03
1.409170000000000073e+03
1.410299999999999955e+03
1.411420000000000073e+03
1.412539999999999964e+03
1.413660000000000082e+03
1.414779999999999973e+03
1.415900000000000091e+03
1.417019999999999982e+03
1.418140000000000100e+03
1.419259999999999991e+03
1.420380000000000109e+03
1.421500000000000000e+03
1.422619999999999891e+03
1.423730000000000018e+03
1.424849999999999909e+03
1.425970000000000027e+03
1.427089999999999918e+03
1.428210000000000036e+03
1.429319999999999936e+03
1.430440000000000055e+03
1.431559999999999945e+03
1.432670000000000073e+03
1.433789999999999964e+03
1.434910000000000082e+03
1.436019999999999982e+03
1.437140000000000100e+03
1.438250000000000000e+03
1.439369999999999891e+03
1.440480000000000018e+03
1.441599999999999909e+03
1.442710000000000036e+03
1.443829999999999927e+03
1.444940000000000055e+03
1.446049999999999955e+03
1.447170000000000073e+03
1.448279999999999973e+03
1.449390000000000100e+03
1.450509999999999991e+03
1.451619999999999891e+03
1.452730000000000018e+03
1.453839999999999918e+03
1.454950000000000045e+03
1.456059999999999945e+03
1.457180000000000064e+03
1.458289999999999964e+03
1.459400000000000091e+03
1.460509999999999991e+03
1.461619999999999891e+03
1.462730000000000018e+03
1.463839999999999918e+03
1.464950000000000045e+03
1.466049999999999955e+03
1.467160000000000082e+03
1.468269999999999982e+03
1.469380000000000109e+03
1.470490000000000009e+03
1.471599999999999909e+03
1.472700000000000045e+03
1.473809999999999945e+03
1.474920000000000073e+03
1.476019999999999982e+03
1.477130000000000109e+03
1.478240000000000009e+03
1.479339999999999918e+03
1.480450000000000045e+03
1.481549999999999955e+03
1.482660000000000082e+03
1.483769999999999982e+03
1.484869999999999891e+03
1.485970000000000027e+03
1.487079999999999927e+03
1.488180000000000064e+03
1.489289999999999964e+03
1.490390000000000100e+03
1.491490000000000009e+03
1.492599999999999909e+03
1.493700000000000045e+03
1.494799999999999955e+03
1.495910000000000082e+03
1.497009999999999991e+03
1.498109999999999900e+03
1.499210000000000036e+03
1.500309999999999945e+03
1.501410000000000082e+03
1.502509999999999991e+03
1.503609999999999900e+03
1.504720000000000027e+03
1.505819999999999936e+03
1.506920000000000073e+03
1.508019999999999982e+03
1.509109999999999900e+03
1.510210000000000036e+03
1.511309999999999945e+03
1.512410000000000082e+03
1.513509999999999991e+03
1.514609999999999900e+03
1.515710000000000036e+03
1.516799999999999955e+03
1.517900000000000091e+03
1.519000000000000000e+03
1.520089999999999918e+03
1.521190000000000055e+03
1.522289999999999964e+03
1.523380000000000109e+03
1.524480000000000018e+03
1.525579999999999927e+03
1.526670000000000073e+03
1.527769999999999982e+03
1.528859999999999900e+03
1.529960000000000036e+03
1.531049999999999955e+03
1.532140000000000100e+03
1.533240000000000009e+03
1.534329999999999927e+03
1.535430000000000064e+03
1.536519999999999982e+03
1.537609999999999900e+03
1.538710000000000036e+03
1.539799999999999955e+03
1.540890000000000100e+03
1.541980000000000018e+03
1.543069999999999936e+03
1.544170000000000073e+03
1.545259999999999991e+03
1.546349999999999909e+03
1.547440000000000055e+03
1.548529999999999973e+03
1.549619999999999891e+03
1.550710000000000036e+03
1.551799999999999955e+03
1.552890000000000100e+03
1.553980000000000018e+03
1.555069999999999936e+03
1.556160000000000082e+03
1.557240000000000009e+03
1.558329999999999927e+03
1.559420000000000073e+03
1.560509999999999991e+03
1.561599999999999909e+03
1.562680000000000064e+03
1.563769999999999982e+03
1.564859999999999900e+03
1.565940000000000055e+03
1.567029999999999973e+03
1.568119999999999891e+03
1.569200000000000045e+03
1.570289999999999964e+03
1.571380000000000109e+03
1.572460000000000036e+03
1.573539999999999964e+03
1.574630000000000109e+03
1.575710000000000036e+03
1.576799999999999955e+03
1.577880000000000109e+03
1.578970000000000027e+03
1.580049999999999955e+03
1.581130000000000109e+03
1.582220000000000027e+03
1.583299999999999955e+03
1.584380000000000109e+03
1.585460000000000036e+03
1.586549999999999955e+03
1.587630000000000109e+03
1.588710000000000036e+03
1.589789999999999964e+03
1.590869999999999891e+03
1.591950000000000045e+03
1.593029999999999973e+03
1.594109999999999900e+03
1.595190000000000055e+03
1.596269999999999982e+03
1.597349999999999909e+03
1.598430000000000064e+03
1.599509999999999991e+03
