4.012029999999999745e+02
4.025579999999999927e+02
4.039119999999999777e+02
4.052669999999999959e+02
4.066209999999999809e+02
4.079750000000000227e+02
4.093290000000000077e+02
4.106820000000000164e+02
4.120350000000000250e+02
4.133870000000000005e+02
4.147400000000000091e+02
4.160919999999999845e+02
4.174429999999999836e+02
4.187939999999999827e+02
4.201449999999999818e+02
4.214959999999999809e+02
4.228460000000000036e+02
4.241960000000000264e+02
4.255459999999999923e+02
4.268949999999999818e+02
4.282440000000000282e+02
4.295930000000000177e+02
4.309420000000000073e+02
4.322900000000000205e+02
4.336370000000000005e+02
4.349850000000000136e+02
4.363319999999999936e+02
4.376789999999999736e+02
4.390249999999999773e+02
4.403709999999999809e+02
4.417169999999999845e+02
4.430620000000000118e+02
4.444080000000000155e+02
4.457520000000000095e+02
4.470969999999999800e+02
4.484409999999999741e+02
4.497850000000000250e+02
4.511290000000000191e+02
4.524719999999999800e+02
4.538149999999999977e+02
4.551580000000000155e+02
4.565000000000000000e+02
4.578419999999999845e+02
4.591829999999999927e+02
4.605249999999999773e+02
4.618659999999999854e+02
4.632069999999999936e+02
4.645470000000000255e+02
4.658870000000000005e+02
4.672280000000000086e+02
4.685670000000000073e+02
4.699060000000000059e+02
4.712450000000000045e+02
4.725830000000000268e+02
4.739209999999999923e+02
4.752590000000000146e+02
4.765960000000000036e+02
4.779329999999999927e+02
4.792699999999999818e+02
4.806070000000000277e+02
4.819440000000000168e+02
4.832799999999999727e+02
4.846150000000000091e+02
4.859499999999999886e+02
4.872860000000000014e+02
4.886200000000000045e+02
4.899540000000000077e+02
4.912889999999999873e+02
4.926220000000000141e+02
4.939560000000000173e+02
4.952880000000000109e+02
4.966220000000000141e+02
4.979540000000000077e+02
4.992860000000000014e+02
5.006179999999999950e+02
5.019499999999999886e+02
5.032810000000000059e+02
5.046109999999999900e+02
5.059420000000000073e+02
5.072730000000000246e+02
5.086019999999999754e+02
5.099320000000000164e+02
5.112610000000000241e+02
5.125910000000000082e+02
5.139189999999999827e+02
5.152480000000000473e+02
5.165760000000000218e+02
5.179030000000000200e+02
5.192309999999999945e+02
5.205579999999999927e+02
5.218849999999999909e+02
5.232110000000000127e+02
5.245380000000000109e+02
5.258630000000000564e+02
5.271879999999999882e+02
5.285140000000000100e+02
5.298390000000000555e+02
5.311639999999999873e+02
5.324869999999999663e+02
5.338120000000000118e+02
5.351349999999999909e+02
5.364579999999999700e+02
5.377820000000000391e+02
5.391050000000000182e+02
5.404270000000000209e+02
5.417490000000000236e+02
5.430700000000000500e+02
5.443920000000000528e+02
5.457129999999999654e+02
5.470339999999999918e+02
5.483550000000000182e+02
5.496749999999999545e+02
5.509940000000000282e+02
5.523150000000000546e+02
5.536340000000000146e+02
5.549519999999999982e+02
5.562709999999999582e+02
5.575900000000000318e+02
5.589080000000000155e+02
5.602259999999999991e+02
5.615430000000000064e+02
5.628600000000000136e+02
5.641770000000000209e+02
5.654930000000000518e+02
5.668089999999999691e+02
5.681250000000000000e+02
5.694410000000000309e+02
5.707559999999999718e+02
5.720710000000000264e+02
5.733849999999999909e+02
5.747000000000000455e+02
5.760140000000000100e+02
5.773279999999999745e+02
5.786409999999999627e+02
5.799539999999999509e+02
5.812670000000000528e+02
5.825789999999999509e+02
5.838909999999999627e+02
5.852039999999999509e+02
5.865149999999999864e+02
5.878260000000000218e+02
5.891369999999999436e+02
5.904479999999999791e+02
5.917580000000000382e+02
5.930670000000000073e+02
5.943780000000000427e+02
5.956870000000000118e+02
5.969950000000000045e+02
5.983049999999999500e+02
5.996130000000000564e+02
6.009210000000000491e+02
6.022290000000000418e+02
6.035359999999999445e+02
6.048440000000000509e+02
6.061509999999999536e+02
6.074569999999999936e+02
6.087640000000000100e+02
6.100700000000000500e+02
6.113750000000000000e+02
6.126810000000000400e+02
6.139859999999999900e+02
6.152899999999999636e+02
6.165940000000000509e+02
6.178980000000000246e+02
6.192029999999999745e+02
6.205059999999999718e+02
6.218089999999999691e+02
6.231119999999999663e+02
6.244149999999999636e+02
6.257160000000000082e+02
6.270190000000000055e+02
6.283210000000000264e+02
6.296219999999999573e+02
6.309230000000000018e+02
6.322229999999999563e+02
6.335240000000000009e+02
6.348239999999999554e+02
6.361240000000000236e+02
6.374239999999999782e+02
6.387229999999999563e+02
6.400220000000000482e+02
6.413200000000000500e+02
6.426180000000000518e+02
6.439160000000000537e+02
6.452150000000000318e+02
6.465119999999999436e+02
6.478089999999999691e+02
6.491059999999999945e+02
6.504020000000000437e+02
6.516979999999999791e+02
6.529940000000000282e+02
6.542889999999999873e+02
6.555850000000000364e+02
6.568799999999999955e+02
6.581739999999999782e+02
6.594690000000000509e+02
6.607630000000000337e+02
6.620570000000000164e+02
6.633500000000000227e+02
6.646430000000000291e+02
6.659360000000000355e+02
6.672290000000000418e+02
6.685209999999999582e+02
6.698129999999999882e+02
6.711040000000000418e+02
6.723959999999999582e+02
6.736870000000000118e+02
6.749769999999999754e+02
6.762680000000000291e+02
6.775579999999999927e+02
6.788469999999999800e+02
6.801369999999999436e+02
6.814260000000000446e+02
6.827150000000000318e+02
6.840040000000000191e+02
6.852920000000000300e+02
6.865800000000000409e+02
6.878669999999999618e+02
6.891549999999999727e+02
6.904420000000000073e+02
6.917290000000000418e+02
6.930149999999999864e+02
6.943010000000000446e+02
6.955869999999999891e+02
6.968730000000000473e+02
6.981580000000000155e+02
6.994429999999999836e+02
7.007279999999999518e+02
7.020119999999999436e+02
7.032970000000000255e+02
7.045800000000000409e+02
7.058630000000000564e+02
7.071470000000000482e+02
7.084299999999999500e+02
7.097119999999999891e+02
7.109940000000000282e+02
7.122759999999999536e+02
7.135579999999999927e+02
7.148390000000000555e+02
7.161200000000000045e+02
7.174009999999999536e+02
7.186810000000000400e+02
7.199619999999999891e+02
7.212409999999999854e+02
7.225209999999999582e+02
7.237999999999999545e+02
7.250789999999999509e+02
7.263579999999999472e+02
7.276359999999999673e+02
7.289139999999999873e+02
7.301920000000000073e+02
7.314690000000000509e+02
7.327459999999999809e+02
7.340240000000000009e+02
7.352999999999999545e+02
7.365760000000000218e+02
7.378519999999999754e+02
7.391280000000000427e+02
7.404039999999999964e+02
7.416789999999999736e+02
7.429529999999999745e+02
7.442269999999999754e+02
7.455019999999999527e+02
7.467759999999999536e+02
7.480489999999999782e+02
7.493220000000000027e+02
7.505950000000000273e+02
7.518680000000000518e+02
7.531399999999999864e+02
7.544130000000000109e+02
7.556849999999999454e+02
7.569560000000000173e+02
7.582269999999999754e+02
7.594980000000000473e+02
7.607690000000000055e+02
7.620389999999999873e+02
7.633089999999999691e+02
7.645789999999999509e+02
7.658479999999999563e+02
7.671169999999999618e+02
7.683859999999999673e+02
7.696549999999999727e+02
7.709230000000000018e+02
7.721900000000000546e+02
7.734579999999999700e+02
7.747259999999999991e+02
7.759930000000000518e+02
7.772599999999999909e+02
7.785259999999999536e+02
7.797920000000000300e+02
7.810579999999999927e+02
7.823239999999999554e+02
7.835879999999999654e+02
7.848540000000000418e+02
7.861180000000000518e+02
7.873830000000000382e+02
7.886470000000000482e+02
7.899099999999999682e+02
7.911739999999999782e+02
7.924379999999999882e+02
7.937000000000000455e+02
7.949629999999999654e+02
7.962259999999999991e+02
7.974869999999999663e+02
7.987490000000000236e+02
8.000099999999999909e+02
8.012720000000000482e+02
8.025330000000000155e+02
8.037930000000000064e+02
8.050539999999999736e+02
8.063129999999999882e+02
8.075729999999999791e+02
8.088329999999999700e+02
8.100919999999999845e+02
8.113500000000000227e+02
8.126090000000000373e+02
8.138669999999999618e+02
8.151250000000000000e+02
8.163819999999999482e+02
8.176399999999999864e+02
8.188970000000000482e+02
8.201530000000000200e+02
8.214099999999999682e+02
8.226660000000000537e+02
8.239220000000000255e+02
8.251779999999999973e+02
8.264329999999999927e+02
8.276879999999999882e+02
8.289429999999999836e+02
8.301970000000000027e+02
8.314519999999999982e+02
8.327050000000000409e+02
8.339589999999999463e+02
8.352119999999999891e+02
8.364650000000000318e+02
8.377179999999999609e+02
8.389700000000000273e+02
8.402219999999999800e+02
8.414740000000000464e+02
8.427250000000000227e+02
8.439769999999999754e+02
8.452269999999999754e+02
8.464779999999999518e+02
8.477290000000000418e+02
8.489790000000000418e+02
8.502279999999999518e+02
8.514769999999999754e+02
8.527259999999999991e+02
8.539750000000000227e+02
8.552250000000000227e+02
8.564729999999999563e+02
8.577210000000000036e+02
8.589690000000000509e+02
8.602150000000000318e+02
8.614629999999999654e+02
8.627089999999999463e+02
8.639560000000000173e+02
8.652029999999999745e+02
8.664489999999999554e+02
8.676939999999999600e+02
8.689389999999999645e+02
8.701849999999999454e+02
8.714289999999999736e+02
8.726739999999999782e+02
8.739189999999999827e+02
8.751620000000000346e+02
8.764059999999999491e+02
8.776490000000000009e+02
8.788930000000000291e+02
8.801349999999999909e+02
8.813769999999999527e+02
8.826200000000000045e+02
8.838619999999999663e+02
8.851029999999999518e+02
8.863450000000000273e+02
8.875860000000000127e+02
8.888269999999999982e+02
8.900670000000000073e+02
8.913070000000000164e+02
8.925480000000000018e+02
8.937870000000000346e+02
8.950270000000000437e+02
8.962659999999999627e+02
8.975049999999999955e+02
8.987430000000000518e+02
8.999809999999999945e+02
9.012190000000000509e+02
9.024560000000000173e+02
9.036939999999999600e+02
9.049310000000000400e+02
9.061670000000000300e+02
9.074039999999999964e+02
9.086409999999999627e+02
9.098759999999999764e+02
9.111119999999999663e+02
9.123479999999999563e+02
9.135819999999999936e+02
9.148170000000000073e+02
9.160510000000000446e+02
9.172859999999999445e+02
9.185199999999999818e+02
9.197530000000000427e+02
9.209869999999999663e+02
9.222200000000000273e+02
9.234519999999999982e+02
9.246839999999999691e+02
9.259170000000000300e+02
9.271490000000000009e+02
9.283809999999999718e+02
9.296119999999999663e+02
9.308429999999999609e+02
9.320739999999999554e+02
9.333039999999999736e+02
9.345339999999999918e+02
9.357640000000000100e+02
9.369940000000000282e+02
9.382229999999999563e+02
9.394529999999999745e+02
9.406820000000000164e+02
9.419089999999999918e+02
9.431380000000000337e+02
9.443659999999999854e+02
9.455929999999999609e+02
9.468210000000000264e+02
9.480480000000000018e+02
9.492740000000000009e+02
9.505009999999999764e+02
9.517269999999999754e+02
9.529529999999999745e+02
9.541789999999999736e+02
9.554049999999999727e+02
9.566290000000000191e+02
9.578540000000000418e+02
9.590789999999999509e+02
9.603029999999999973e+02
9.615270000000000437e+02
9.627500000000000000e+02
9.639740000000000464e+02
9.651970000000000027e+02
9.664199999999999591e+02
9.676430000000000291e+02
9.688650000000000091e+02
9.700869999999999891e+02
9.713079999999999927e+02
9.725299999999999727e+02
9.737509999999999764e+02
9.749719999999999800e+02
9.761920000000000073e+02
9.774120000000000346e+02
9.786330000000000382e+02
9.798529999999999518e+02
9.810710000000000264e+02
9.822910000000000537e+02
9.835099999999999909e+02
9.847279999999999518e+02
9.859470000000000027e+02
9.871639999999999873e+02
9.883830000000000382e+02
9.896000000000000227e+02
9.908170000000000073e+02
9.920339999999999918e+02
9.932509999999999764e+02
9.944669999999999845e+02
9.956829999999999927e+02
9.968990000000000009e+02
9.981150000000000091e+02
9.993300000000000409e+02
1.000539999999999964e+03
1.001759999999999991e+03
1.002970000000000027e+03
1.004190000000000055e+03
1.005399999999999977e+03
1.006610000000000014e+03
1.007830000000000041e+03
1.009039999999999964e+03
1.010250000000000000e+03
1.011470000000000027e+03
1.012679999999999950e+03
1.013889999999999986e+03
1.015100000000000023e+03
1.016309999999999945e+03
1.017519999999999982e+03
1.018740000000000009e+03
1.019950000000000045e+03
1.021159999999999968e+03
1.022370000000000005e+03
1.023580000000000041e+03
1.024789999999999964e+03
1.025990000000000009e+03
1.027200000000000045e+03
1.028410000000000082e+03
1.029619999999999891e+03
1.030829999999999927e+03
1.032039999999999964e+03
1.033240000000000009e+03
1.034450000000000045e+03
1.035660000000000082e+03
1.036859999999999900e+03
1.038069999999999936e+03
1.039279999999999973e+03
1.040480000000000018e+03
1.041690000000000055e+03
1.042890000000000100e+03
1.044099999999999909e+03
1.045299999999999955e+03
1.046509999999999991e+03
1.047710000000000036e+03
1.048910000000000082e+03
1.050119999999999891e+03
1.051319999999999936e+03
1.052519999999999982e+03
1.053730000000000018e+03
1.054930000000000064e+03
1.056130000000000109e+03
1.057329999999999927e+03
1.058529999999999973e+03
1.059740000000000009e+03
1.060940000000000055e+03
1.062140000000000100e+03
1.063339999999999918e+03
1.064539999999999964e+03
1.065740000000000009e+03
1.066940000000000055e+03
1.068140000000000100e+03
1.069339999999999918e+03
1.070539999999999964e+03
1.071730000000000018e+03
1.072930000000000064e+03
1.074130000000000109e+03
1.075329999999999927e+03
1.076529999999999973e+03
1.077720000000000027e+03
1.078920000000000073e+03
1.080119999999999891e+03
1.081309999999999945e+03
1.082509999999999991e+03
1.083700000000000045e+03
1.084900000000000091e+03
1.086099999999999909e+03
1.087289999999999964e+03
1.088490000000000009e+03
1.089680000000000064e+03
1.090869999999999891e+03
1.092069999999999936e+03
1.093259999999999991e+03
1.094460000000000036e+03
1.095650000000000091e+03
1.096839999999999918e+03
1.098029999999999973e+03
1.099230000000000018e+03
1.100420000000000073e+03
1.101609999999999900e+03
1.102799999999999955e+03
1.103990000000000009e+03
1.105180000000000064e+03
1.106369999999999891e+03
1.107559999999999945e+03
1.108750000000000000e+03
1.109940000000000055e+03
1.111130000000000109e+03
1.112319999999999936e+03
1.113509999999999991e+03
1.114700000000000045e+03
1.115890000000000100e+03
1.117079999999999927e+03
1.118269999999999982e+03
1.119450000000000045e+03
1.120640000000000100e+03
1.121829999999999927e+03
1.123009999999999991e+03
1.124200000000000045e+03
1.125390000000000100e+03
1.126569999999999936e+03
1.127759999999999991e+03
1.128940000000000055e+03
1.130130000000000109e+03
1.131309999999999945e+03
1.132500000000000000e+03
1.133680000000000064e+03
1.134869999999999891e+03
1.136049999999999955e+03
1.137230000000000018e+03
1.138420000000000073e+03
1.139599999999999909e+03
1.140779999999999973e+03
1.141970000000000027e+03
1.143150000000000091e+03
1.144329999999999927e+03
1.145509999999999991e+03
1.146690000000000055e+03
1.147869999999999891e+03
1.149059999999999945e+03
1.150240000000000009e+03
1.151420000000000073e+03
1.152599999999999909e+03
1.153779999999999973e+03
1.154950000000000045e+03
1.156130000000000109e+03
1.157309999999999945e+03
1.158490000000000009e+03
1.159670000000000073e+03
1.160849999999999909e+03
1.162029999999999973e+03
1.163200000000000045e+03
1.164380000000000109e+03
1.165559999999999945e+03
1.166740000000000009e+03
1.167910000000000082e+03
1.169089999999999918e+03
1.170259999999999991e+03
1.171440000000000055e+03
1.172619999999999891e+03
1.173789999999999964e+03
1.174970000000000027e+03
1.176140000000000100e+03
1.177309999999999945e+03
1.178490000000000009e+03
1.179660000000000082e+03
1.180839999999999918e+03
1.182009999999999991e+03
1.183180000000000064e+03
1.184359999999999900e+03
1.185529999999999973e+03
1.186700000000000045e+03
1.187869999999999891e+03
1.189039999999999964e+03
1.190220000000000027e+03
1.191390000000000100e+03
1.192559999999999945e+03
1.193730000000000018e+03
1.194900000000000091e+03
1.196069999999999936e+03
1.197240000000000009e+03
1.198410000000000082e+03
1.199579999999999927e+03
1.200750000000000000e+03
1.201920000000000073e+03
1.203079999999999927e+03
1.204250000000000000e+03
1.205420000000000073e+03
1.206589999999999918e+03
1.207759999999999991e+03
1.208920000000000073e+03
1.210089999999999918e+03
1.211259999999999991e+03
1.212420000000000073e+03
1.213589999999999918e+03
1.214750000000000000e+03
1.215920000000000073e+03
1.217089999999999918e+03
1.218250000000000000e+03
1.219420000000000073e+03
1.220579999999999927e+03
1.221740000000000009e+03
1.222910000000000082e+03
1.224069999999999936e+03
1.225240000000000009e+03
1.226400000000000091e+03
1.227559999999999945e+03
1.228720000000000027e+03
1.229890000000000100e+03
1.231049999999999955e+03
1.232210000000000036e+03
1.233369999999999891e+03
1.234529999999999973e+03
1.235690000000000055e+03
1.236859999999999900e+03
1.238019999999999982e+03
1.239180000000000064e+03
1.240339999999999918e+03
1.241500000000000000e+03
1.242660000000000082e+03
1.243819999999999936e+03
1.244970000000000027e+03
1.246130000000000109e+03
1.247289999999999964e+03
1.248450000000000045e+03
1.249609999999999900e+03
1.250769999999999982e+03
1.251920000000000073e+03
1.253079999999999927e+03
1.254240000000000009e+03
1.255390000000000100e+03
1.256549999999999955e+03
1.257710000000000036e+03
1.258859999999999900e+03
1.260019999999999982e+03
1.261170000000000073e+03
1.262329999999999927e+03
1.263480000000000018e+03
1.264640000000000100e+03
1.265789999999999964e+03
1.266950000000000045e+03
1.268099999999999909e+03
1.269250000000000000e+03
1.270410000000000082e+03
1.271559999999999945e+03
1.272710000000000036e+03
1.273859999999999900e+03
1.275019999999999982e+03
1.276170000000000073e+03
1.277319999999999936e+03
1.278470000000000027e+03
1.279619999999999891e+03
1.280769999999999982e+03
1.281920000000000073e+03
1.283069999999999936e+03
1.284220000000000027e+03
1.285369999999999891e+03
1.286519999999999982e+03
1.287670000000000073e+03
1.288819999999999936e+03
1.289970000000000027e+03
1.291119999999999891e+03
1.292269999999999982e+03
1.293420000000000073e+03
1.294559999999999945e+03
1.295710000000000036e+03
1.296859999999999900e+03
1.298009999999999991e+03
1.299150000000000091e+03
1.300299999999999955e+03
1.301440000000000055e+03
1.302589999999999918e+03
1.303740000000000009e+03
1.304880000000000109e+03
1.306029999999999973e+03
1.307170000000000073e+03
1.308319999999999936e+03
1.309460000000000036e+03
1.310599999999999909e+03
1.311750000000000000e+03
1.312890000000000100e+03
1.314039999999999964e+03
1.315180000000000064e+03
1.316319999999999936e+03
1.317460000000000036e+03
1.318609999999999900e+03
1.319750000000000000e+03
1.320890000000000100e+03
1.322029999999999973e+03
1.323170000000000073e+03
1.324309999999999945e+03
1.325450000000000045e+03
1.326589999999999918e+03
1.327730000000000018e+03
1.328869999999999891e+03
1.330009999999999991e+03
1.331150000000000091e+03
1.332289999999999964e+03
1.333430000000000064e+03
1.334569999999999936e+03
1.335710000000000036e+03
1.336849999999999909e+03
1.337980000000000018e+03
1.339119999999999891e+03
1.340259999999999991e+03
1.341400000000000091e+03
1.342529999999999973e+03
1.343670000000000073e+03
1.344809999999999945e+03
1.345940000000000055e+03
1.347079999999999927e+03
1.348210000000000036e+03
1.349349999999999909e+03
1.350490000000000009e+03
1.351619999999999891e+03
1.352750000000000000e+03
1.353890000000000100e+03
1.355019999999999982e+03
1.356160000000000082e+03
1.357289999999999964e+03
1.358420000000000073e+03
1.359559999999999945e+03
1.360690000000000055e+03
1.361819999999999936e+03
1.362950000000000045e+03
1.364089999999999918e+03
1.365220000000000027e+03
1.366349999999999909e+03
1.367480000000000018e+03
1.368609999999999900e+03
1.369740000000000009e+03
1.370869999999999891e+03
1.372000000000000000e+03
1.373130000000000109e+03
1.374259999999999991e+03
1.375390000000000100e+03
1.376519999999999982e+03
1.377650000000000091e+03
1.378779999999999973e+03
1.379910000000000082e+03
1.381039999999999964e+03
1.382160000000000082e+03
1.383289999999999964e+03
1.384420000000000073e+03
1.385549999999999955e+03
1.386670000000000073e+03
1.387799999999999955e+03
1.388930000000000064e+03
1.390049999999999955e+03
1.391180000000000064e+03
1.392299999999999955e+03
1.393430000000000064e+03
1.394549999999999955e+03
1.395680000000000064e+03
1.396799999999999955e+03
1.397930000000000064e+03
1.399049999999999955e+03
1.400180000000000064e+03
1.401299999999999955e+03
1.402420000000000073e+03
1.403549999999999955e+03
1.404670000000000073e+03
1.405789999999999964e+03
1.406910000000000082e+03
1.408039999999999964e+03
1.409160000000000082e+03
1.410279999999999973e+03
1.411400000000000091e+03
1.412519999999999982e+03
1.413640000000000100e+03
1.414759999999999991e+03
1.415880000000000109e+03
1.417000000000000000e+03
1.418119999999999891e+03
1.419240000000000009e+03
1.420359999999999900e+03
1.421480000000000018e+03
1.422599999999999909e+03
1.423720000000000027e+03
1.424839999999999918e+03
1.425950000000000045e+03
1.427069999999999936e+03
1.428190000000000055e+03
1.429309999999999945e+03
1.430420000000000073e+03
1.431539999999999964e+03
1.432660000000000082e+03
1.433769999999999982e+03
1.434890000000000100e+03
1.436009999999999991e+03
1.437119999999999891e+03
1.438240000000000009e+03
1.439349999999999909e+03
1.440470000000000027e+03
1.441579999999999927e+03
1.442700000000000045e+03
1.443809999999999945e+03
1.444920000000000073e+03
1.446039999999999964e+03
1.447150000000000091e+03
1.448259999999999991e+03
1.449380000000000109e+03
1.450490000000000009e+03
1.451599999999999909e+03
1.452710000000000036e+03
1.453819999999999936e+03
1.454940000000000055e+03
1.456049999999999955e+03
1.457160000000000082e+03
1.458269999999999982e+03
1.459380000000000109e+03
1.460490000000000009e+03
1.461599999999999909e+03
1.462710000000000036e+03
1.463819999999999936e+03
1.464930000000000064e+03
1.466039999999999964e+03
1.467150000000000091e+03
1.468259999999999991e+03
1.469359999999999900e+03
1.470470000000000027e+03
1.471579999999999927e+03
1.472690000000000055e+03
1.473789999999999964e+03
1.474900000000000091e+03
1.476009999999999991e+03
1.477119999999999891e+03
1.478220000000000027e+03
1.479329999999999927e+03
1.480430000000000064e+03
1.481539999999999964e+03
1.482640000000000100e+03
1.483750000000000000e+03
1.484849999999999909e+03
1.485960000000000036e+03
1.487059999999999945e+03
1.488170000000000073e+03
1.489269999999999982e+03
1.490369999999999891e+03
1.491480000000000018e+03
1.492579999999999927e+03
1.493680000000000064e+03
1.494789999999999964e+03
1.495890000000000100e+03
1.496990000000000009e+03
1.498089999999999918e+03
1.499190000000000055e+03
1.500299999999999955e+03
1.501400000000000091e+03
1.502500000000000000e+03
1.503599999999999909e+03
1.504700000000000045e+03
1.505799999999999955e+03
1.506900000000000091e+03
1.508000000000000000e+03
1.509099999999999909e+03
1.510200000000000045e+03
1.511299999999999955e+03
1.512390000000000100e+03
1.513490000000000009e+03
1.514589999999999918e+03
1.515690000000000055e+03
1.516789999999999964e+03
1.517880000000000109e+03
1.518980000000000018e+03
1.520079999999999927e+03
1.521180000000000064e+03
1.522269999999999982e+03
1.523369999999999891e+03
1.524460000000000036e+03
1.525559999999999945e+03
1.526650000000000091e+03
1.527750000000000000e+03
1.528849999999999909e+03
1.529940000000000055e+03
1.531029999999999973e+03
1.532130000000000109e+03
1.533220000000000027e+03
1.534319999999999936e+03
1.535410000000000082e+03
1.536500000000000000e+03
1.537599999999999909e+03
1.538690000000000055e+03
1.539779999999999973e+03
1.540869999999999891e+03
1.541970000000000027e+03
1.543059999999999945e+03
1.544150000000000091e+03
1.545240000000000009e+03
1.546329999999999927e+03
1.547420000000000073e+03
1.548509999999999991e+03
1.549599999999999909e+03
1.550690000000000055e+03
1.551779999999999973e+03
1.552869999999999891e+03
1.553960000000000036e+03
1.555049999999999955e+03
1.556140000000000100e+03
1.557230000000000018e+03
1.558319999999999936e+03
1.559410000000000082e+03
1.560490000000000009e+03
1.561579999999999927e+03
1.562670000000000073e+03
1.563759999999999991e+03
1.564839999999999918e+03
1.565930000000000064e+03
1.567019999999999982e+03
1.568099999999999909e+03
1.569190000000000055e+03
1.570269999999999982e+03
1.571359999999999900e+03
1.572440000000000055e+03
1.573529999999999973e+03
1.574609999999999900e+03
1.575700000000000045e+03
1.576779999999999973e+03
1.577869999999999891e+03
1.578950000000000045e+03
1.580029999999999973e+03
1.581119999999999891e+03
1.582200000000000045e+03
1.583279999999999973e+03
1.584369999999999891e+03
1.585450000000000045e+03
1.586529999999999973e+03
1.587609999999999900e+03
1.588690000000000055e+03
1.589779999999999973e+03
1.590859999999999900e+03
1.591940000000000055e+03
1.593019999999999982e+03
1.594099999999999909e+03
1.595180000000000064e+03
1.596259999999999991e+03
1.597339999999999918e+03
1.598420000000000073e+03
1.599500000000000000e+03
