4.012320000000000277e+02
4.025880000000000223e+02
4.039420000000000073e+02
4.052970000000000255e+02
4.066510000000000105e+02
4.080040000000000191e+02
4.093589999999999804e+02
4.107119999999999891e+02
4.120640000000000214e+02
4.134169999999999732e+02
4.147690000000000055e+02
4.161209999999999809e+02
4.174730000000000132e+02
4.188240000000000123e+02
4.201750000000000114e+02
4.215260000000000105e+02
4.228759999999999764e+02
4.242259999999999991e+02
4.255760000000000218e+02
4.269250000000000114e+02
4.282740000000000009e+02
4.296229999999999905e+02
4.309710000000000036e+02
4.323190000000000168e+02
4.336669999999999732e+02
4.350140000000000100e+02
4.363609999999999900e+02
4.377080000000000268e+02
4.390539999999999736e+02
4.404010000000000105e+02
4.417459999999999809e+02
4.430919999999999845e+02
4.444370000000000118e+02
4.457819999999999823e+02
4.471270000000000095e+02
4.484710000000000036e+02
4.498149999999999977e+02
4.511580000000000155e+02
4.525020000000000095e+02
4.538439999999999941e+02
4.551870000000000118e+02
4.565299999999999727e+02
4.578709999999999809e+02
4.592130000000000223e+02
4.605539999999999736e+02
4.618960000000000150e+02
4.632359999999999900e+02
4.645760000000000218e+02
4.659159999999999968e+02
4.672559999999999718e+02
4.685950000000000273e+02
4.699340000000000259e+02
4.712730000000000246e+02
4.726120000000000232e+02
4.739499999999999886e+02
4.752880000000000109e+02
4.766250000000000000e+02
4.779630000000000223e+02
4.793000000000000114e+02
4.806360000000000241e+02
4.819730000000000132e+02
4.833079999999999927e+02
4.846440000000000055e+02
4.859800000000000182e+02
4.873149999999999977e+02
4.886490000000000009e+02
4.899839999999999804e+02
4.913170000000000073e+02
4.926510000000000105e+02
4.939850000000000136e+02
4.953179999999999836e+02
4.966510000000000105e+02
4.979830000000000041e+02
4.993149999999999977e+02
5.006469999999999914e+02
5.019780000000000086e+02
5.033100000000000023e+02
5.046410000000000196e+02
5.059710000000000036e+02
5.073009999999999877e+02
5.086320000000000050e+02
5.099610000000000127e+02
5.112900000000000205e+02
5.126190000000000282e+02
5.139479999999999791e+02
5.152759999999999536e+02
5.166050000000000182e+02
5.179320000000000164e+02
5.192599999999999909e+02
5.205869999999999891e+02
5.219130000000000109e+02
5.232400000000000091e+02
5.245660000000000309e+02
5.258920000000000528e+02
5.272169999999999845e+02
5.285430000000000064e+02
5.298680000000000518e+02
5.311920000000000073e+02
5.325159999999999627e+02
5.338410000000000082e+02
5.351639999999999873e+02
5.364869999999999663e+02
5.378110000000000355e+02
5.391330000000000382e+02
5.404560000000000173e+02
5.417770000000000437e+02
5.431000000000000227e+02
5.444210000000000491e+02
5.457419999999999618e+02
5.470629999999999882e+02
5.483830000000000382e+02
5.497039999999999509e+02
5.510230000000000246e+02
5.523429999999999609e+02
5.536630000000000109e+02
5.549809999999999945e+02
5.562999999999999545e+02
5.576180000000000518e+02
5.589360000000000355e+02
5.602540000000000191e+02
5.615720000000000027e+02
5.628890000000000100e+02
5.642060000000000173e+02
5.655220000000000482e+02
5.668379999999999654e+02
5.681539999999999964e+02
5.694700000000000273e+02
5.707839999999999918e+02
5.720990000000000464e+02
5.734139999999999873e+02
5.747290000000000418e+02
5.760430000000000064e+02
5.773559999999999945e+02
5.786689999999999827e+02
5.799829999999999472e+02
5.812949999999999591e+02
5.826079999999999472e+02
5.839199999999999591e+02
5.852319999999999709e+02
5.865430000000000064e+02
5.878540000000000418e+02
5.891660000000000537e+02
5.904759999999999991e+02
5.917870000000000346e+02
5.930960000000000036e+02
5.944059999999999491e+02
5.957150000000000318e+02
5.970240000000000009e+02
5.983329999999999700e+02
5.996420000000000528e+02
6.009500000000000455e+02
6.022569999999999482e+02
6.035650000000000546e+02
6.048719999999999573e+02
6.061789999999999736e+02
6.074850000000000136e+02
6.087910000000000537e+02
6.100969999999999800e+02
6.114030000000000200e+02
6.127079999999999700e+02
6.140140000000000100e+02
6.153179999999999836e+02
6.166230000000000473e+02
6.179270000000000209e+02
6.192309999999999945e+02
6.205339999999999918e+02
6.218369999999999891e+02
6.231409999999999627e+02
6.244429999999999836e+02
6.257450000000000045e+02
6.270470000000000255e+02
6.283490000000000464e+02
6.296499999999999773e+02
6.309510000000000218e+02
6.322519999999999527e+02
6.335520000000000209e+02
6.348529999999999518e+02
6.361520000000000437e+02
6.374519999999999982e+02
6.387509999999999764e+02
6.400499999999999545e+02
6.413490000000000464e+02
6.426470000000000482e+02
6.439450000000000500e+02
6.452419999999999618e+02
6.465399999999999636e+02
6.478369999999999891e+02
6.491340000000000146e+02
6.504299999999999500e+02
6.517269999999999754e+02
6.530220000000000482e+02
6.543179999999999836e+02
6.556130000000000564e+02
6.569080000000000155e+02
6.582029999999999745e+02
6.594969999999999573e+02
6.607910000000000537e+02
6.620850000000000364e+02
6.633780000000000427e+02
6.646720000000000255e+02
6.659650000000000318e+02
6.672569999999999482e+02
6.685489999999999782e+02
6.698400000000000318e+02
6.711319999999999482e+02
6.724239999999999782e+02
6.737150000000000318e+02
6.750059999999999718e+02
6.762960000000000491e+02
6.775860000000000127e+02
6.788759999999999764e+02
6.801649999999999636e+02
6.814550000000000409e+02
6.827430000000000518e+02
6.840309999999999491e+02
6.853200000000000500e+02
6.866079999999999472e+02
6.878959999999999582e+02
6.891829999999999927e+02
6.904700000000000273e+02
6.917569999999999482e+02
6.930439999999999827e+02
6.943300000000000409e+02
6.956159999999999854e+02
6.969009999999999536e+02
6.981860000000000355e+02
6.994710000000000036e+02
7.007559999999999718e+02
7.020399999999999636e+02
7.033239999999999554e+02
7.046079999999999472e+02
7.058909999999999627e+02
7.071749999999999545e+02
7.084569999999999936e+02
7.097400000000000091e+02
7.110220000000000482e+02
7.123039999999999736e+02
7.135860000000000127e+02
7.148669999999999618e+02
7.161480000000000246e+02
7.174289999999999736e+02
7.187089999999999463e+02
7.199890000000000327e+02
7.212690000000000055e+02
7.225489999999999782e+02
7.238279999999999745e+02
7.251069999999999709e+02
7.263849999999999909e+02
7.276639999999999873e+02
7.289420000000000073e+02
7.302200000000000273e+02
7.314969999999999573e+02
7.327740000000000009e+02
7.340510000000000446e+02
7.353279999999999745e+02
7.366040000000000418e+02
7.378799999999999955e+02
7.391549999999999727e+02
7.404310000000000400e+02
7.417060000000000173e+02
7.429809999999999945e+02
7.442549999999999955e+02
7.455299999999999727e+02
7.468039999999999736e+02
7.480769999999999982e+02
7.493500000000000227e+02
7.506230000000000473e+02
7.518949999999999818e+02
7.531680000000000064e+02
7.544410000000000309e+02
7.557119999999999891e+02
7.569840000000000373e+02
7.582549999999999955e+02
7.595259999999999536e+02
7.607960000000000491e+02
7.620670000000000073e+02
7.633369999999999891e+02
7.646059999999999945e+02
7.658759999999999764e+02
7.671449999999999818e+02
7.684130000000000109e+02
7.696829999999999927e+02
7.709510000000000218e+02
7.722179999999999609e+02
7.734859999999999900e+02
7.747530000000000427e+02
7.760199999999999818e+02
7.772870000000000346e+02
7.785529999999999973e+02
7.798189999999999600e+02
7.810850000000000364e+02
7.823509999999999991e+02
7.836159999999999854e+02
7.848809999999999718e+02
7.861459999999999582e+02
7.874109999999999445e+02
7.886739999999999782e+02
7.899379999999999882e+02
7.912019999999999982e+02
7.924650000000000318e+02
7.937279999999999518e+02
7.949909999999999854e+02
7.962530000000000427e+02
7.975149999999999864e+02
7.987759999999999536e+02
8.000380000000000109e+02
8.012989999999999782e+02
8.025599999999999454e+02
8.038210000000000264e+02
8.050810000000000173e+02
8.063410000000000082e+02
8.076009999999999991e+02
8.088600000000000136e+02
8.101190000000000282e+02
8.113780000000000427e+02
8.126359999999999673e+02
8.138949999999999818e+02
8.151520000000000437e+02
8.164099999999999682e+02
8.176670000000000300e+02
8.189239999999999782e+02
8.201810000000000400e+02
8.214379999999999882e+02
8.226939999999999600e+02
8.239500000000000455e+02
8.252060000000000173e+02
8.264600000000000364e+02
8.277150000000000318e+02
8.289700000000000273e+02
8.302250000000000227e+02
8.314779999999999518e+02
8.327329999999999472e+02
8.339859999999999900e+02
8.352390000000000327e+02
8.364919999999999618e+02
8.377450000000000045e+02
8.389969999999999573e+02
8.402490000000000236e+02
8.415009999999999764e+02
8.427530000000000427e+02
8.440030000000000427e+02
8.452549999999999955e+02
8.465049999999999955e+02
8.477549999999999955e+02
8.490049999999999955e+02
8.502559999999999718e+02
8.515049999999999955e+02
8.527540000000000191e+02
8.540030000000000427e+02
8.552509999999999764e+02
8.565000000000000000e+02
8.577480000000000473e+02
8.589950000000000045e+02
8.602430000000000518e+02
8.614900000000000091e+02
8.627369999999999663e+02
8.639840000000000373e+02
8.652300000000000182e+02
8.664750000000000227e+02
8.677210000000000036e+02
8.689669999999999845e+02
8.702119999999999891e+02
8.714569999999999936e+02
8.727019999999999982e+02
8.739450000000000500e+02
8.751900000000000546e+02
8.764329999999999927e+02
8.776770000000000209e+02
8.789189999999999827e+02
8.801630000000000109e+02
8.814049999999999727e+02
8.826470000000000482e+02
8.838890000000000100e+02
8.851309999999999718e+02
8.863719999999999573e+02
8.876140000000000327e+02
8.888540000000000418e+02
8.900940000000000509e+02
8.913350000000000364e+02
8.925739999999999554e+02
8.938139999999999645e+02
8.950529999999999973e+02
8.962920000000000300e+02
8.975309999999999491e+02
8.987699999999999818e+02
9.000080000000000382e+02
9.012459999999999809e+02
9.024840000000000373e+02
9.037210000000000036e+02
9.049579999999999700e+02
9.061950000000000500e+02
9.074310000000000400e+02
9.086670000000000300e+02
9.099030000000000200e+02
9.111390000000000100e+02
9.123740000000000236e+02
9.136090000000000373e+02
9.148440000000000509e+02
9.160789999999999509e+02
9.173129999999999882e+02
9.185470000000000255e+02
9.197799999999999727e+02
9.210130000000000337e+02
9.222469999999999573e+02
9.234790000000000418e+02
9.247119999999999891e+02
9.259439999999999600e+02
9.271749999999999545e+02
9.284080000000000155e+02
9.296390000000000100e+02
9.308700000000000045e+02
9.321009999999999991e+02
9.333310000000000173e+02
9.345610000000000355e+02
9.357910000000000537e+02
9.370209999999999582e+02
9.382509999999999764e+02
9.394790000000000418e+02
9.407079999999999700e+02
9.419370000000000118e+02
9.431649999999999636e+02
9.443920000000000528e+02
9.456200000000000045e+02
9.468479999999999563e+02
9.480739999999999554e+02
9.493020000000000209e+02
9.505280000000000200e+02
9.517540000000000191e+02
9.529800000000000182e+02
9.542060000000000173e+02
9.554310000000000400e+02
9.566559999999999491e+02
9.578809999999999718e+02
9.591050000000000182e+02
9.603300000000000409e+02
9.615539999999999736e+02
9.627770000000000437e+02
9.640009999999999764e+02
9.652240000000000464e+02
9.664460000000000264e+02
9.676689999999999827e+02
9.688920000000000528e+02
9.701140000000000327e+02
9.713350000000000364e+02
9.725560000000000400e+02
9.737770000000000437e+02
9.749980000000000473e+02
9.762190000000000509e+02
9.774400000000000546e+02
9.786599999999999682e+02
9.798790000000000191e+02
9.810979999999999563e+02
9.823179999999999836e+02
9.835359999999999445e+02
9.847549999999999955e+02
9.859729999999999563e+02
9.871910000000000309e+02
9.884099999999999682e+02
9.896269999999999527e+02
9.908440000000000509e+02
9.920610000000000355e+02
9.932770000000000437e+02
9.944940000000000282e+02
9.957100000000000364e+02
9.969260000000000446e+02
9.981409999999999627e+02
9.993559999999999945e+02
1.000570000000000050e+03
1.001789999999999964e+03
1.003000000000000000e+03
1.004210000000000036e+03
1.005429999999999950e+03
1.006639999999999986e+03
1.007860000000000014e+03
1.009070000000000050e+03
1.010279999999999973e+03
1.011490000000000009e+03
1.012710000000000036e+03
1.013919999999999959e+03
1.015129999999999995e+03
1.016340000000000032e+03
1.017549999999999955e+03
1.018759999999999991e+03
1.019970000000000027e+03
1.021179999999999950e+03
1.022389999999999986e+03
1.023600000000000023e+03
1.024809999999999945e+03
1.026019999999999982e+03
1.027230000000000018e+03
1.028440000000000055e+03
1.029650000000000091e+03
1.030849999999999909e+03
1.032059999999999945e+03
1.033269999999999982e+03
1.034480000000000018e+03
1.035680000000000064e+03
1.036890000000000100e+03
1.038099999999999909e+03
1.039299999999999955e+03
1.040509999999999991e+03
1.041710000000000036e+03
1.042920000000000073e+03
1.044119999999999891e+03
1.045329999999999927e+03
1.046529999999999973e+03
1.047740000000000009e+03
1.048940000000000055e+03
1.050140000000000100e+03
1.051349999999999909e+03
1.052549999999999955e+03
1.053750000000000000e+03
1.054960000000000036e+03
1.056160000000000082e+03
1.057359999999999900e+03
1.058559999999999945e+03
1.059759999999999991e+03
1.060960000000000036e+03
1.062160000000000082e+03
1.063359999999999900e+03
1.064559999999999945e+03
1.065759999999999991e+03
1.066960000000000036e+03
1.068160000000000082e+03
1.069359999999999900e+03
1.070559999999999945e+03
1.071759999999999991e+03
1.072960000000000036e+03
1.074160000000000082e+03
1.075349999999999909e+03
1.076549999999999955e+03
1.077750000000000000e+03
1.078950000000000045e+03
1.080140000000000100e+03
1.081339999999999918e+03
1.082539999999999964e+03
1.083730000000000018e+03
1.084930000000000064e+03
1.086119999999999891e+03
1.087319999999999936e+03
1.088509999999999991e+03
1.089710000000000036e+03
1.090900000000000091e+03
1.092089999999999918e+03
1.093289999999999964e+03
1.094480000000000018e+03
1.095670000000000073e+03
1.096869999999999891e+03
1.098059999999999945e+03
1.099250000000000000e+03
1.100440000000000055e+03
1.101640000000000100e+03
1.102829999999999927e+03
1.104019999999999982e+03
1.105210000000000036e+03
1.106400000000000091e+03
1.107589999999999918e+03
1.108779999999999973e+03
1.109970000000000027e+03
1.111160000000000082e+03
1.112349999999999909e+03
1.113539999999999964e+03
1.114730000000000018e+03
1.115920000000000073e+03
1.117099999999999909e+03
1.118289999999999964e+03
1.119480000000000018e+03
1.120670000000000073e+03
1.121849999999999909e+03
1.123039999999999964e+03
1.124230000000000018e+03
1.125410000000000082e+03
1.126599999999999909e+03
1.127779999999999973e+03
1.128970000000000027e+03
1.130160000000000082e+03
1.131339999999999918e+03
1.132519999999999982e+03
1.133710000000000036e+03
1.134890000000000100e+03
1.136079999999999927e+03
1.137259999999999991e+03
1.138440000000000055e+03
1.139630000000000109e+03
1.140809999999999945e+03
1.141990000000000009e+03
1.143170000000000073e+03
1.144359999999999900e+03
1.145539999999999964e+03
1.146720000000000027e+03
1.147900000000000091e+03
1.149079999999999927e+03
1.150259999999999991e+03
1.151440000000000055e+03
1.152619999999999891e+03
1.153799999999999955e+03
1.154980000000000018e+03
1.156160000000000082e+03
1.157339999999999918e+03
1.158519999999999982e+03
1.159700000000000045e+03
1.160869999999999891e+03
1.162049999999999955e+03
1.163230000000000018e+03
1.164410000000000082e+03
1.165579999999999927e+03
1.166759999999999991e+03
1.167940000000000055e+03
1.169109999999999900e+03
1.170289999999999964e+03
1.171470000000000027e+03
1.172640000000000100e+03
1.173819999999999936e+03
1.174990000000000009e+03
1.176170000000000073e+03
1.177339999999999918e+03
1.178519999999999982e+03
1.179690000000000055e+03
1.180859999999999900e+03
1.182039999999999964e+03
1.183210000000000036e+03
1.184380000000000109e+03
1.185549999999999955e+03
1.186730000000000018e+03
1.187900000000000091e+03
1.189069999999999936e+03
1.190240000000000009e+03
1.191410000000000082e+03
1.192579999999999927e+03
1.193750000000000000e+03
1.194920000000000073e+03
1.196089999999999918e+03
1.197259999999999991e+03
1.198430000000000064e+03
1.199599999999999909e+03
1.200769999999999982e+03
1.201940000000000055e+03
1.203109999999999900e+03
1.204279999999999973e+03
1.205450000000000045e+03
1.206609999999999900e+03
1.207779999999999973e+03
1.208950000000000045e+03
1.210119999999999891e+03
1.211279999999999973e+03
1.212450000000000045e+03
1.213609999999999900e+03
1.214779999999999973e+03
1.215950000000000045e+03
1.217109999999999900e+03
1.218279999999999973e+03
1.219440000000000055e+03
1.220609999999999900e+03
1.221769999999999982e+03
1.222930000000000064e+03
1.224099999999999909e+03
1.225259999999999991e+03
1.226420000000000073e+03
1.227589999999999918e+03
1.228750000000000000e+03
1.229910000000000082e+03
1.231069999999999936e+03
1.232240000000000009e+03
1.233400000000000091e+03
1.234559999999999945e+03
1.235720000000000027e+03
1.236880000000000109e+03
1.238039999999999964e+03
1.239200000000000045e+03
1.240359999999999900e+03
1.241519999999999982e+03
1.242680000000000064e+03
1.243839999999999918e+03
1.245000000000000000e+03
1.246160000000000082e+03
1.247319999999999936e+03
1.248480000000000018e+03
1.249630000000000109e+03
1.250789999999999964e+03
1.251950000000000045e+03
1.253109999999999900e+03
1.254259999999999991e+03
1.255420000000000073e+03
1.256569999999999936e+03
1.257730000000000018e+03
1.258890000000000100e+03
1.260039999999999964e+03
1.261200000000000045e+03
1.262349999999999909e+03
1.263509999999999991e+03
1.264660000000000082e+03
1.265819999999999936e+03
1.266970000000000027e+03
1.268119999999999891e+03
1.269279999999999973e+03
1.270430000000000064e+03
1.271579999999999927e+03
1.272740000000000009e+03
1.273890000000000100e+03
1.275039999999999964e+03
1.276190000000000055e+03
1.277349999999999909e+03
1.278500000000000000e+03
1.279650000000000091e+03
1.280799999999999955e+03
1.281950000000000045e+03
1.283099999999999909e+03
1.284250000000000000e+03
1.285400000000000091e+03
1.286549999999999955e+03
1.287700000000000045e+03
1.288849999999999909e+03
1.290000000000000000e+03
1.291140000000000100e+03
1.292289999999999964e+03
1.293440000000000055e+03
1.294589999999999918e+03
1.295740000000000009e+03
1.296880000000000109e+03
1.298029999999999973e+03
1.299180000000000064e+03
1.300319999999999936e+03
1.301470000000000027e+03
1.302609999999999900e+03
1.303759999999999991e+03
1.304910000000000082e+03
1.306049999999999955e+03
1.307200000000000045e+03
1.308339999999999918e+03
1.309490000000000009e+03
1.310630000000000109e+03
1.311769999999999982e+03
1.312920000000000073e+03
1.314059999999999945e+03
1.315200000000000045e+03
1.316349999999999909e+03
1.317490000000000009e+03
1.318630000000000109e+03
1.319769999999999982e+03
1.320910000000000082e+03
1.322059999999999945e+03
1.323200000000000045e+03
1.324339999999999918e+03
1.325480000000000018e+03
1.326619999999999891e+03
1.327759999999999991e+03
1.328900000000000091e+03
1.330039999999999964e+03
1.331180000000000064e+03
1.332319999999999936e+03
1.333460000000000036e+03
1.334599999999999909e+03
1.335730000000000018e+03
1.336869999999999891e+03
1.338009999999999991e+03
1.339150000000000091e+03
1.340279999999999973e+03
1.341420000000000073e+03
1.342559999999999945e+03
1.343700000000000045e+03
1.344829999999999927e+03
1.345970000000000027e+03
1.347099999999999909e+03
1.348240000000000009e+03
1.349380000000000109e+03
1.350509999999999991e+03
1.351640000000000100e+03
1.352779999999999973e+03
1.353910000000000082e+03
1.355049999999999955e+03
1.356180000000000064e+03
1.357319999999999936e+03
1.358450000000000045e+03
1.359579999999999927e+03
1.360710000000000036e+03
1.361849999999999909e+03
1.362980000000000018e+03
1.364109999999999900e+03
1.365240000000000009e+03
1.366369999999999891e+03
1.367500000000000000e+03
1.368640000000000100e+03
1.369769999999999982e+03
1.370900000000000091e+03
1.372029999999999973e+03
1.373160000000000082e+03
1.374289999999999964e+03
1.375420000000000073e+03
1.376549999999999955e+03
1.377670000000000073e+03
1.378799999999999955e+03
1.379930000000000064e+03
1.381059999999999945e+03
1.382190000000000055e+03
1.383319999999999936e+03
1.384440000000000055e+03
1.385569999999999936e+03
1.386700000000000045e+03
1.387819999999999936e+03
1.388950000000000045e+03
1.390079999999999927e+03
1.391200000000000045e+03
1.392329999999999927e+03
1.393450000000000045e+03
1.394579999999999927e+03
1.395700000000000045e+03
1.396829999999999927e+03
1.397950000000000045e+03
1.399079999999999927e+03
1.400200000000000045e+03
1.401319999999999936e+03
1.402450000000000045e+03
1.403569999999999936e+03
1.404690000000000055e+03
1.405819999999999936e+03
1.406940000000000055e+03
1.408059999999999945e+03
1.409180000000000064e+03
1.410299999999999955e+03
1.411430000000000064e+03
1.412549999999999955e+03
1.413670000000000073e+03
1.414789999999999964e+03
1.415910000000000082e+03
1.417029999999999973e+03
1.418150000000000091e+03
1.419269999999999982e+03
1.420390000000000100e+03
1.421509999999999991e+03
1.422619999999999891e+03
1.423740000000000009e+03
1.424859999999999900e+03
1.425980000000000018e+03
1.427099999999999909e+03
1.428210000000000036e+03
1.429329999999999927e+03
1.430450000000000045e+03
1.431569999999999936e+03
1.432680000000000064e+03
1.433799999999999955e+03
1.434910000000000082e+03
1.436029999999999973e+03
1.437150000000000091e+03
1.438259999999999991e+03
1.439380000000000109e+03
1.440490000000000009e+03
1.441609999999999900e+03
1.442720000000000027e+03
1.443829999999999927e+03
1.444950000000000045e+03
1.446059999999999945e+03
1.447170000000000073e+03
1.448289999999999964e+03
1.449400000000000091e+03
1.450509999999999991e+03
1.451630000000000109e+03
1.452740000000000009e+03
1.453849999999999909e+03
1.454960000000000036e+03
1.456069999999999936e+03
1.457180000000000064e+03
1.458289999999999964e+03
1.459400000000000091e+03
1.460509999999999991e+03
1.461630000000000109e+03
1.462730000000000018e+03
1.463839999999999918e+03
1.464950000000000045e+03
1.466059999999999945e+03
1.467170000000000073e+03
1.468279999999999973e+03
1.469390000000000100e+03
1.470500000000000000e+03
1.471599999999999909e+03
1.472710000000000036e+03
1.473819999999999936e+03
1.474930000000000064e+03
1.476029999999999973e+03
1.477140000000000100e+03
1.478250000000000000e+03
1.479349999999999909e+03
1.480460000000000036e+03
1.481559999999999945e+03
1.482670000000000073e+03
1.483769999999999982e+03
1.484880000000000109e+03
1.485980000000000018e+03
1.487089999999999918e+03
1.488190000000000055e+03
1.489299999999999955e+03
1.490400000000000091e+03
1.491500000000000000e+03
1.492609999999999900e+03
1.493710000000000036e+03
1.494809999999999945e+03
1.495910000000000082e+03
1.497009999999999991e+03
1.498119999999999891e+03
1.499220000000000027e+03
1.500319999999999936e+03
1.501420000000000073e+03
1.502519999999999982e+03
1.503619999999999891e+03
1.504720000000000027e+03
1.505819999999999936e+03
1.506920000000000073e+03
1.508019999999999982e+03
1.509119999999999891e+03
1.510220000000000027e+03
1.511319999999999936e+03
1.512420000000000073e+03
1.513519999999999982e+03
1.514609999999999900e+03
1.515710000000000036e+03
1.516809999999999945e+03
1.517910000000000082e+03
1.519009999999999991e+03
1.520099999999999909e+03
1.521200000000000045e+03
1.522299999999999955e+03
1.523390000000000100e+03
1.524490000000000009e+03
1.525579999999999927e+03
1.526680000000000064e+03
1.527769999999999982e+03
1.528869999999999891e+03
1.529960000000000036e+03
1.531059999999999945e+03
1.532150000000000091e+03
1.533250000000000000e+03
1.534339999999999918e+03
1.535430000000000064e+03
1.536529999999999973e+03
1.537619999999999891e+03
1.538710000000000036e+03
1.539809999999999945e+03
1.540900000000000091e+03
1.541990000000000009e+03
1.543079999999999927e+03
1.544170000000000073e+03
1.545259999999999991e+03
1.546359999999999900e+03
1.547450000000000045e+03
1.548539999999999964e+03
1.549630000000000109e+03
1.550720000000000027e+03
1.551809999999999945e+03
1.552900000000000091e+03
1.553990000000000009e+03
1.555079999999999927e+03
1.556160000000000082e+03
1.557250000000000000e+03
1.558339999999999918e+03
1.559430000000000064e+03
1.560519999999999982e+03
1.561609999999999900e+03
1.562690000000000055e+03
1.563779999999999973e+03
1.564869999999999891e+03
1.565950000000000045e+03
1.567039999999999964e+03
1.568130000000000109e+03
1.569210000000000036e+03
1.570299999999999955e+03
1.571380000000000109e+03
1.572470000000000027e+03
1.573549999999999955e+03
1.574640000000000100e+03
1.575720000000000027e+03
1.576809999999999945e+03
1.577890000000000100e+03
1.578970000000000027e+03
1.580059999999999945e+03
1.581140000000000100e+03
1.582220000000000027e+03
1.583309999999999945e+03
1.584390000000000100e+03
1.585470000000000027e+03
1.586549999999999955e+03
1.587640000000000100e+03
1.588720000000000027e+03
1.589799999999999955e+03
1.590880000000000109e+03
1.591960000000000036e+03
1.593039999999999964e+03
1.594119999999999891e+03
1.595200000000000045e+03
1.596279999999999973e+03
1.597359999999999900e+03
1.598440000000000055e+03
1.599519999999999982e+03
