4.012819999999999823e+02
4.026379999999999768e+02
4.039920000000000186e+02
4.053469999999999800e+02
4.067010000000000218e+02
4.080550000000000068e+02
4.094089999999999918e+02
4.107620000000000005e+02
4.121139999999999759e+02
4.134669999999999845e+02
4.148199999999999932e+02
4.161709999999999923e+02
4.175230000000000246e+02
4.188740000000000236e+02
4.202250000000000227e+02
4.215760000000000218e+02
4.229259999999999877e+02
4.242760000000000105e+02
4.256250000000000000e+02
4.269750000000000227e+02
4.283240000000000123e+02
4.296730000000000018e+02
4.310210000000000150e+02
4.323690000000000282e+02
4.337160000000000082e+02
4.350640000000000214e+02
4.364110000000000014e+02
4.377579999999999814e+02
4.391039999999999850e+02
4.404510000000000218e+02
4.417970000000000255e+02
4.431419999999999959e+02
4.444870000000000232e+02
4.458319999999999936e+02
4.471770000000000209e+02
4.485199999999999818e+02
4.498650000000000091e+02
4.512080000000000268e+02
4.525520000000000209e+02
4.538940000000000055e+02
4.552359999999999900e+02
4.565790000000000077e+02
4.579209999999999923e+02
4.592620000000000005e+02
4.606050000000000182e+02
4.619449999999999932e+02
4.632860000000000014e+02
4.646259999999999764e+02
4.659660000000000082e+02
4.673059999999999832e+02
4.686449999999999818e+02
4.699850000000000136e+02
4.713240000000000123e+02
4.726619999999999777e+02
4.740000000000000000e+02
4.753369999999999891e+02
4.766750000000000114e+02
4.780120000000000005e+02
4.793489999999999895e+02
4.806859999999999786e+02
4.820219999999999914e+02
4.833589999999999804e+02
4.846940000000000168e+02
4.860289999999999964e+02
4.873639999999999759e+02
4.886979999999999791e+02
4.900330000000000155e+02
4.913670000000000186e+02
4.927010000000000218e+02
4.940339999999999918e+02
4.953670000000000186e+02
4.966999999999999886e+02
4.980319999999999823e+02
4.993650000000000091e+02
5.006960000000000264e+02
5.020280000000000200e+02
5.033589999999999804e+02
5.046899999999999977e+02
5.060199999999999818e+02
5.073509999999999991e+02
5.086809999999999832e+02
5.100099999999999909e+02
5.113389999999999986e+02
5.126680000000000064e+02
5.139969999999999573e+02
5.153260000000000218e+02
5.166539999999999964e+02
5.179819999999999709e+02
5.193089999999999691e+02
5.206359999999999673e+02
5.219629999999999654e+02
5.232899999999999636e+02
5.246150000000000091e+02
5.259410000000000309e+02
5.272670000000000528e+02
5.285919999999999845e+02
5.299170000000000300e+02
5.312409999999999854e+02
5.325650000000000546e+02
5.338899999999999864e+02
5.352140000000000555e+02
5.365359999999999445e+02
5.378600000000000136e+02
5.391820000000000164e+02
5.405049999999999955e+02
5.418260000000000218e+02
5.431490000000000009e+02
5.444700000000000273e+02
5.457910000000000537e+02
5.471119999999999663e+02
5.484329999999999927e+02
5.497530000000000427e+02
5.510720000000000027e+02
5.523930000000000291e+02
5.537119999999999891e+02
5.550299999999999727e+02
5.563490000000000464e+02
5.576670000000000300e+02
5.589859999999999900e+02
5.603029999999999973e+02
5.616209999999999809e+02
5.629379999999999882e+02
5.642540000000000191e+02
5.655710000000000264e+02
5.668869999999999436e+02
5.682029999999999745e+02
5.695190000000000055e+02
5.708339999999999463e+02
5.721480000000000246e+02
5.734629999999999654e+02
5.747770000000000437e+02
5.760919999999999845e+02
5.774049999999999727e+02
5.787179999999999609e+02
5.800309999999999491e+02
5.813450000000000273e+02
5.826559999999999491e+02
5.839690000000000509e+02
5.852799999999999727e+02
5.865919999999999845e+02
5.879030000000000200e+02
5.892140000000000555e+02
5.905240000000000009e+02
5.918350000000000364e+02
5.931449999999999818e+02
5.944539999999999509e+02
5.957640000000000100e+02
5.970729999999999791e+02
5.983809999999999718e+02
5.996900000000000546e+02
6.009980000000000473e+02
6.023060000000000400e+02
6.036130000000000564e+02
6.049199999999999591e+02
6.062269999999999754e+02
6.075339999999999918e+02
6.088400000000000318e+02
6.101459999999999582e+02
6.114519999999999982e+02
6.127569999999999482e+02
6.140620000000000118e+02
6.153669999999999618e+02
6.166710000000000491e+02
6.179759999999999991e+02
6.192799999999999727e+02
6.205819999999999936e+02
6.218859999999999673e+02
6.231889999999999645e+02
6.244919999999999618e+02
6.257939999999999827e+02
6.270960000000000036e+02
6.283970000000000482e+02
6.296989999999999554e+02
6.310000000000000000e+02
6.322999999999999545e+02
6.336009999999999991e+02
6.349009999999999536e+02
6.362010000000000218e+02
6.375009999999999764e+02
6.387989999999999782e+02
6.400979999999999563e+02
6.413970000000000482e+02
6.426950000000000500e+02
6.439930000000000518e+02
6.452910000000000537e+02
6.465890000000000555e+02
6.478859999999999673e+02
6.491820000000000164e+02
6.504790000000000418e+02
6.517749999999999773e+02
6.530710000000000264e+02
6.543659999999999854e+02
6.556609999999999445e+02
6.569560000000000173e+02
6.582509999999999764e+02
6.595460000000000491e+02
6.608390000000000555e+02
6.621330000000000382e+02
6.634260000000000446e+02
6.647200000000000273e+02
6.660130000000000337e+02
6.673049999999999500e+02
6.685969999999999800e+02
6.698890000000000100e+02
6.711799999999999500e+02
6.724719999999999800e+02
6.737630000000000337e+02
6.750539999999999736e+02
6.763440000000000509e+02
6.776340000000000146e+02
6.789239999999999782e+02
6.802129999999999654e+02
6.815019999999999527e+02
6.827910000000000537e+02
6.840789999999999509e+02
6.853680000000000518e+02
6.866559999999999491e+02
6.879429999999999836e+02
6.892309999999999945e+02
6.905180000000000291e+02
6.918049999999999500e+02
6.930910000000000082e+02
6.943780000000000427e+02
6.956630000000000109e+02
6.969489999999999554e+02
6.982340000000000373e+02
6.995190000000000055e+02
7.008039999999999736e+02
7.020879999999999654e+02
7.033719999999999573e+02
7.046559999999999491e+02
7.059389999999999645e+02
7.072229999999999563e+02
7.085049999999999955e+02
7.097880000000000109e+02
7.110700000000000500e+02
7.123519999999999754e+02
7.136330000000000382e+02
7.149139999999999873e+02
7.161960000000000264e+02
7.174769999999999754e+02
7.187569999999999482e+02
7.200370000000000346e+02
7.213170000000000073e+02
7.225960000000000036e+02
7.238759999999999764e+02
7.251549999999999727e+02
7.264329999999999927e+02
7.277110000000000127e+02
7.289900000000000091e+02
7.302680000000000291e+02
7.315449999999999591e+02
7.328220000000000027e+02
7.340990000000000464e+02
7.353750000000000000e+02
7.366509999999999536e+02
7.379270000000000209e+02
7.392029999999999745e+02
7.404779999999999518e+02
7.417530000000000427e+02
7.430280000000000200e+02
7.443029999999999973e+02
7.455769999999999982e+02
7.468509999999999991e+02
7.481240000000000236e+02
7.493980000000000246e+02
7.506710000000000491e+02
7.519429999999999836e+02
7.532160000000000082e+02
7.544880000000000564e+02
7.557590000000000146e+02
7.570309999999999491e+02
7.583020000000000209e+02
7.595729999999999791e+02
7.608429999999999609e+02
7.621140000000000327e+02
7.633840000000000146e+02
7.646530000000000200e+02
7.659230000000000018e+02
7.671920000000000073e+02
7.684610000000000127e+02
7.697300000000000182e+02
7.709980000000000473e+02
7.722659999999999627e+02
7.735330000000000155e+02
7.747999999999999545e+02
7.760670000000000073e+02
7.773339999999999463e+02
7.786000000000000227e+02
7.798669999999999618e+02
7.811319999999999482e+02
7.823980000000000246e+02
7.836630000000000109e+02
7.849289999999999736e+02
7.861929999999999836e+02
7.874579999999999700e+02
7.887210000000000036e+02
7.899850000000000136e+02
7.912490000000000236e+02
7.925119999999999436e+02
7.937749999999999773e+02
7.950380000000000109e+02
7.962999999999999545e+02
7.975620000000000118e+02
7.988229999999999791e+02
8.000850000000000364e+02
8.013460000000000036e+02
8.026069999999999709e+02
8.038680000000000518e+02
8.051280000000000427e+02
8.063880000000000337e+02
8.076480000000000246e+02
8.089070000000000391e+02
8.101660000000000537e+02
8.114249999999999545e+02
8.126829999999999927e+02
8.139410000000000309e+02
8.151989999999999554e+02
8.164569999999999936e+02
8.177140000000000555e+02
8.189710000000000036e+02
8.202279999999999518e+02
8.214840000000000373e+02
8.227409999999999854e+02
8.239969999999999573e+02
8.252519999999999527e+02
8.265069999999999482e+02
8.277619999999999436e+02
8.290170000000000528e+02
8.302720000000000482e+02
8.315249999999999773e+02
8.327789999999999964e+02
8.340330000000000155e+02
8.352859999999999445e+02
8.365389999999999873e+02
8.377910000000000537e+02
8.390439999999999827e+02
8.402960000000000491e+02
8.415480000000000018e+02
8.427989999999999782e+02
8.440499999999999545e+02
8.453020000000000209e+02
8.465520000000000209e+02
8.478020000000000209e+02
8.490520000000000209e+02
8.503020000000000209e+02
8.515520000000000209e+02
8.528010000000000446e+02
8.540489999999999782e+02
8.552980000000000018e+02
8.565460000000000491e+02
8.577939999999999827e+02
8.590420000000000300e+02
8.602889999999999873e+02
8.615370000000000346e+02
8.627839999999999918e+02
8.640299999999999727e+02
8.652759999999999536e+02
8.665220000000000482e+02
8.677680000000000291e+02
8.690130000000000337e+02
8.702580000000000382e+02
8.715030000000000427e+02
8.727480000000000473e+02
8.739919999999999618e+02
8.752359999999999900e+02
8.764790000000000418e+02
8.777229999999999563e+02
8.789660000000000082e+02
8.802089999999999463e+02
8.814510000000000218e+02
8.826929999999999836e+02
8.839360000000000355e+02
8.851770000000000209e+02
8.864180000000000064e+02
8.876599999999999682e+02
8.888999999999999773e+02
8.901409999999999627e+02
8.913809999999999718e+02
8.926209999999999809e+02
8.938600000000000136e+02
8.951000000000000227e+02
8.963390000000000555e+02
8.975769999999999982e+02
8.988160000000000309e+02
9.000539999999999736e+02
9.012920000000000300e+02
9.025299999999999727e+02
9.037670000000000528e+02
9.050040000000000191e+02
9.062409999999999854e+02
9.074779999999999518e+02
9.087129999999999654e+02
9.099489999999999554e+02
9.111849999999999454e+02
9.124199999999999591e+02
9.136559999999999491e+02
9.148899999999999864e+02
9.161250000000000000e+02
9.173590000000000373e+02
9.185919999999999845e+02
9.198260000000000218e+02
9.210589999999999691e+02
9.222920000000000300e+02
9.235249999999999773e+02
9.247580000000000382e+02
9.259900000000000091e+02
9.272210000000000036e+02
9.284539999999999509e+02
9.296849999999999454e+02
9.309160000000000537e+02
9.321470000000000482e+02
9.333769999999999527e+02
9.346069999999999709e+02
9.358369999999999891e+02
9.370670000000000073e+02
9.382960000000000491e+02
9.395249999999999773e+02
9.407540000000000191e+02
9.419819999999999709e+02
9.432110000000000127e+02
9.444379999999999882e+02
9.456660000000000537e+02
9.468940000000000055e+02
9.481200000000000045e+02
9.493469999999999800e+02
9.505729999999999791e+02
9.517999999999999545e+02
9.530259999999999536e+02
9.542519999999999527e+02
9.554769999999999754e+02
9.567019999999999982e+02
9.579270000000000209e+02
9.591509999999999536e+02
9.603750000000000000e+02
9.616000000000000227e+02
9.628229999999999791e+02
9.640460000000000491e+02
9.652690000000000055e+02
9.664919999999999618e+02
9.677140000000000555e+02
9.689370000000000118e+02
9.701589999999999918e+02
9.713799999999999955e+02
9.726019999999999754e+02
9.738229999999999791e+02
9.750439999999999827e+02
9.762649999999999864e+02
9.774850000000000136e+02
9.787039999999999509e+02
9.799239999999999782e+02
9.811440000000000055e+02
9.823630000000000564e+02
9.835819999999999936e+02
9.848010000000000446e+02
9.860190000000000055e+02
9.872369999999999663e+02
9.884539999999999509e+02
9.896720000000000255e+02
9.908890000000000100e+02
9.921059999999999945e+02
9.933229999999999791e+02
9.945389999999999873e+02
9.957549999999999955e+02
9.969710000000000036e+02
9.981860000000000355e+02
9.994009999999999536e+02
1.000620000000000005e+03
1.001830000000000041e+03
1.003049999999999955e+03
1.004259999999999991e+03
1.005470000000000027e+03
1.006690000000000055e+03
1.007899999999999977e+03
1.009110000000000014e+03
1.010330000000000041e+03
1.011539999999999964e+03
1.012750000000000000e+03
1.013960000000000036e+03
1.015169999999999959e+03
1.016379999999999995e+03
1.017600000000000023e+03
1.018809999999999945e+03
1.020019999999999982e+03
1.021230000000000018e+03
1.022440000000000055e+03
1.023649999999999977e+03
1.024859999999999900e+03
1.026069999999999936e+03
1.027269999999999982e+03
1.028480000000000018e+03
1.029690000000000055e+03
1.030900000000000091e+03
1.032109999999999900e+03
1.033309999999999945e+03
1.034519999999999982e+03
1.035730000000000018e+03
1.036930000000000064e+03
1.038140000000000100e+03
1.039349999999999909e+03
1.040549999999999955e+03
1.041759999999999991e+03
1.042960000000000036e+03
1.044170000000000073e+03
1.045369999999999891e+03
1.046579999999999927e+03
1.047779999999999973e+03
1.048990000000000009e+03
1.050190000000000055e+03
1.051390000000000100e+03
1.052599999999999909e+03
1.053799999999999955e+03
1.055000000000000000e+03
1.056200000000000045e+03
1.057400000000000091e+03
1.058609999999999900e+03
1.059809999999999945e+03
1.061009999999999991e+03
1.062210000000000036e+03
1.063410000000000082e+03
1.064609999999999900e+03
1.065809999999999945e+03
1.067009999999999991e+03
1.068210000000000036e+03
1.069410000000000082e+03
1.070609999999999900e+03
1.071799999999999955e+03
1.073000000000000000e+03
1.074200000000000045e+03
1.075400000000000091e+03
1.076599999999999909e+03
1.077789999999999964e+03
1.078990000000000009e+03
1.080190000000000055e+03
1.081380000000000109e+03
1.082579999999999927e+03
1.083779999999999973e+03
1.084970000000000027e+03
1.086170000000000073e+03
1.087359999999999900e+03
1.088559999999999945e+03
1.089750000000000000e+03
1.090950000000000045e+03
1.092140000000000100e+03
1.093329999999999927e+03
1.094529999999999973e+03
1.095720000000000027e+03
1.096910000000000082e+03
1.098099999999999909e+03
1.099299999999999955e+03
1.100490000000000009e+03
1.101680000000000064e+03
1.102869999999999891e+03
1.104059999999999945e+03
1.105250000000000000e+03
1.106440000000000055e+03
1.107630000000000109e+03
1.108819999999999936e+03
1.110009999999999991e+03
1.111200000000000045e+03
1.112390000000000100e+03
1.113579999999999927e+03
1.114769999999999982e+03
1.115960000000000036e+03
1.117150000000000091e+03
1.118339999999999918e+03
1.119519999999999982e+03
1.120710000000000036e+03
1.121900000000000091e+03
1.123079999999999927e+03
1.124269999999999982e+03
1.125460000000000036e+03
1.126640000000000100e+03
1.127829999999999927e+03
1.129009999999999991e+03
1.130200000000000045e+03
1.131380000000000109e+03
1.132569999999999936e+03
1.133750000000000000e+03
1.134940000000000055e+03
1.136119999999999891e+03
1.137299999999999955e+03
1.138490000000000009e+03
1.139670000000000073e+03
1.140849999999999909e+03
1.142039999999999964e+03
1.143220000000000027e+03
1.144400000000000091e+03
1.145579999999999927e+03
1.146759999999999991e+03
1.147940000000000055e+03
1.149119999999999891e+03
1.150309999999999945e+03
1.151490000000000009e+03
1.152670000000000073e+03
1.153849999999999909e+03
1.155029999999999973e+03
1.156200000000000045e+03
1.157380000000000109e+03
1.158559999999999945e+03
1.159740000000000009e+03
1.160920000000000073e+03
1.162099999999999909e+03
1.163269999999999982e+03
1.164450000000000045e+03
1.165630000000000109e+03
1.166809999999999945e+03
1.167980000000000018e+03
1.169160000000000082e+03
1.170329999999999927e+03
1.171509999999999991e+03
1.172690000000000055e+03
1.173859999999999900e+03
1.175039999999999964e+03
1.176210000000000036e+03
1.177380000000000109e+03
1.178559999999999945e+03
1.179730000000000018e+03
1.180910000000000082e+03
1.182079999999999927e+03
1.183250000000000000e+03
1.184430000000000064e+03
1.185599999999999909e+03
1.186769999999999982e+03
1.187940000000000055e+03
1.189109999999999900e+03
1.190289999999999964e+03
1.191460000000000036e+03
1.192630000000000109e+03
1.193799999999999955e+03
1.194970000000000027e+03
1.196140000000000100e+03
1.197309999999999945e+03
1.198480000000000018e+03
1.199650000000000091e+03
1.200819999999999936e+03
1.201990000000000009e+03
1.203150000000000091e+03
1.204319999999999936e+03
1.205490000000000009e+03
1.206660000000000082e+03
1.207819999999999936e+03
1.208990000000000009e+03
1.210160000000000082e+03
1.211329999999999927e+03
1.212490000000000009e+03
1.213660000000000082e+03
1.214819999999999936e+03
1.215990000000000009e+03
1.217150000000000091e+03
1.218319999999999936e+03
1.219480000000000018e+03
1.220650000000000091e+03
1.221809999999999945e+03
1.222980000000000018e+03
1.224140000000000100e+03
1.225299999999999955e+03
1.226470000000000027e+03
1.227630000000000109e+03
1.228789999999999964e+03
1.229960000000000036e+03
1.231119999999999891e+03
1.232279999999999973e+03
1.233440000000000055e+03
1.234599999999999909e+03
1.235759999999999991e+03
1.236920000000000073e+03
1.238089999999999918e+03
1.239250000000000000e+03
1.240410000000000082e+03
1.241569999999999936e+03
1.242730000000000018e+03
1.243880000000000109e+03
1.245039999999999964e+03
1.246200000000000045e+03
1.247359999999999900e+03
1.248519999999999982e+03
1.249680000000000064e+03
1.250829999999999927e+03
1.251990000000000009e+03
1.253150000000000091e+03
1.254309999999999945e+03
1.255460000000000036e+03
1.256619999999999891e+03
1.257779999999999973e+03
1.258930000000000064e+03
1.260089999999999918e+03
1.261240000000000009e+03
1.262400000000000091e+03
1.263549999999999955e+03
1.264710000000000036e+03
1.265859999999999900e+03
1.267009999999999991e+03
1.268170000000000073e+03
1.269319999999999936e+03
1.270470000000000027e+03
1.271630000000000109e+03
1.272779999999999973e+03
1.273930000000000064e+03
1.275079999999999927e+03
1.276240000000000009e+03
1.277390000000000100e+03
1.278539999999999964e+03
1.279690000000000055e+03
1.280839999999999918e+03
1.281990000000000009e+03
1.283140000000000100e+03
1.284289999999999964e+03
1.285440000000000055e+03
1.286589999999999918e+03
1.287740000000000009e+03
1.288890000000000100e+03
1.290039999999999964e+03
1.291190000000000055e+03
1.292339999999999918e+03
1.293480000000000018e+03
1.294630000000000109e+03
1.295779999999999973e+03
1.296930000000000064e+03
1.298069999999999936e+03
1.299220000000000027e+03
1.300369999999999891e+03
1.301509999999999991e+03
1.302660000000000082e+03
1.303799999999999955e+03
1.304950000000000045e+03
1.306089999999999918e+03
1.307240000000000009e+03
1.308380000000000109e+03
1.309529999999999973e+03
1.310670000000000073e+03
1.311819999999999936e+03
1.312960000000000036e+03
1.314099999999999909e+03
1.315250000000000000e+03
1.316390000000000100e+03
1.317529999999999973e+03
1.318670000000000073e+03
1.319819999999999936e+03
1.320960000000000036e+03
1.322099999999999909e+03
1.323240000000000009e+03
1.324380000000000109e+03
1.325519999999999982e+03
1.326660000000000082e+03
1.327799999999999955e+03
1.328940000000000055e+03
1.330079999999999927e+03
1.331220000000000027e+03
1.332359999999999900e+03
1.333500000000000000e+03
1.334640000000000100e+03
1.335779999999999973e+03
1.336910000000000082e+03
1.338049999999999955e+03
1.339190000000000055e+03
1.340329999999999927e+03
1.341460000000000036e+03
1.342599999999999909e+03
1.343740000000000009e+03
1.344869999999999891e+03
1.346009999999999991e+03
1.347150000000000091e+03
1.348279999999999973e+03
1.349420000000000073e+03
1.350549999999999955e+03
1.351690000000000055e+03
1.352819999999999936e+03
1.353960000000000036e+03
1.355089999999999918e+03
1.356220000000000027e+03
1.357359999999999900e+03
1.358490000000000009e+03
1.359619999999999891e+03
1.360759999999999991e+03
1.361890000000000100e+03
1.363019999999999982e+03
1.364150000000000091e+03
1.365279999999999973e+03
1.366420000000000073e+03
1.367549999999999955e+03
1.368680000000000064e+03
1.369809999999999945e+03
1.370940000000000055e+03
1.372069999999999936e+03
1.373200000000000045e+03
1.374329999999999927e+03
1.375460000000000036e+03
1.376589999999999918e+03
1.377720000000000027e+03
1.378849999999999909e+03
1.379970000000000027e+03
1.381099999999999909e+03
1.382230000000000018e+03
1.383359999999999900e+03
1.384490000000000009e+03
1.385609999999999900e+03
1.386740000000000009e+03
1.387869999999999891e+03
1.388990000000000009e+03
1.390119999999999891e+03
1.391240000000000009e+03
1.392369999999999891e+03
1.393500000000000000e+03
1.394619999999999891e+03
1.395750000000000000e+03
1.396869999999999891e+03
1.397990000000000009e+03
1.399119999999999891e+03
1.400240000000000009e+03
1.401369999999999891e+03
1.402490000000000009e+03
1.403609999999999900e+03
1.404740000000000009e+03
1.405859999999999900e+03
1.406980000000000018e+03
1.408099999999999909e+03
1.409220000000000027e+03
1.410349999999999909e+03
1.411470000000000027e+03
1.412589999999999918e+03
1.413710000000000036e+03
1.414829999999999927e+03
1.415950000000000045e+03
1.417069999999999936e+03
1.418190000000000055e+03
1.419309999999999945e+03
1.420430000000000064e+03
1.421549999999999955e+03
1.422670000000000073e+03
1.423779999999999973e+03
1.424900000000000091e+03
1.426019999999999982e+03
1.427140000000000100e+03
1.428259999999999991e+03
1.429369999999999891e+03
1.430490000000000009e+03
1.431609999999999900e+03
1.432720000000000027e+03
1.433839999999999918e+03
1.434960000000000036e+03
1.436069999999999936e+03
1.437190000000000055e+03
1.438299999999999955e+03
1.439420000000000073e+03
1.440529999999999973e+03
1.441650000000000091e+03
1.442759999999999991e+03
1.443880000000000109e+03
1.444990000000000009e+03
1.446099999999999909e+03
1.447220000000000027e+03
1.448329999999999927e+03
1.449440000000000055e+03
1.450549999999999955e+03
1.451670000000000073e+03
1.452779999999999973e+03
1.453890000000000100e+03
1.455000000000000000e+03
1.456109999999999900e+03
1.457220000000000027e+03
1.458339999999999918e+03
1.459450000000000045e+03
1.460559999999999945e+03
1.461670000000000073e+03
1.462779999999999973e+03
1.463890000000000100e+03
1.465000000000000000e+03
1.466099999999999909e+03
1.467210000000000036e+03
1.468319999999999936e+03
1.469430000000000064e+03
1.470539999999999964e+03
1.471650000000000091e+03
1.472750000000000000e+03
1.473859999999999900e+03
1.474970000000000027e+03
1.476069999999999936e+03
1.477180000000000064e+03
1.478289999999999964e+03
1.479390000000000100e+03
1.480500000000000000e+03
1.481599999999999909e+03
1.482710000000000036e+03
1.483819999999999936e+03
1.484920000000000073e+03
1.486019999999999982e+03
1.487130000000000109e+03
1.488230000000000018e+03
1.489339999999999918e+03
1.490440000000000055e+03
1.491539999999999964e+03
1.492650000000000091e+03
1.493750000000000000e+03
1.494849999999999909e+03
1.495950000000000045e+03
1.497059999999999945e+03
1.498160000000000082e+03
1.499259999999999991e+03
1.500359999999999900e+03
1.501460000000000036e+03
1.502559999999999945e+03
1.503660000000000082e+03
1.504759999999999991e+03
1.505859999999999900e+03
1.506960000000000036e+03
1.508059999999999945e+03
1.509160000000000082e+03
1.510259999999999991e+03
1.511359999999999900e+03
1.512460000000000036e+03
1.513559999999999945e+03
1.514660000000000082e+03
1.515750000000000000e+03
1.516849999999999909e+03
1.517950000000000045e+03
1.519049999999999955e+03
1.520140000000000100e+03
1.521240000000000009e+03
1.522339999999999918e+03
1.523430000000000064e+03
1.524529999999999973e+03
1.525619999999999891e+03
1.526720000000000027e+03
1.527819999999999936e+03
1.528910000000000082e+03
1.530009999999999991e+03
1.531099999999999909e+03
1.532190000000000055e+03
1.533289999999999964e+03
1.534380000000000109e+03
1.535480000000000018e+03
1.536569999999999936e+03
1.537660000000000082e+03
1.538750000000000000e+03
1.539849999999999909e+03
1.540940000000000055e+03
1.542029999999999973e+03
1.543119999999999891e+03
1.544210000000000036e+03
1.545309999999999945e+03
1.546400000000000091e+03
1.547490000000000009e+03
1.548579999999999927e+03
1.549670000000000073e+03
1.550759999999999991e+03
1.551849999999999909e+03
1.552940000000000055e+03
1.554029999999999973e+03
1.555119999999999891e+03
1.556200000000000045e+03
1.557289999999999964e+03
1.558380000000000109e+03
1.559470000000000027e+03
1.560559999999999945e+03
1.561650000000000091e+03
1.562730000000000018e+03
1.563819999999999936e+03
1.564910000000000082e+03
1.565990000000000009e+03
1.567079999999999927e+03
1.568170000000000073e+03
1.569250000000000000e+03
1.570339999999999918e+03
1.571420000000000073e+03
1.572509999999999991e+03
1.573589999999999918e+03
1.574680000000000064e+03
1.575759999999999991e+03
1.576849999999999909e+03
1.577930000000000064e+03
1.579019999999999982e+03
1.580099999999999909e+03
1.581180000000000064e+03
1.582269999999999982e+03
1.583349999999999909e+03
1.584430000000000064e+03
1.585509999999999991e+03
1.586599999999999909e+03
1.587680000000000064e+03
1.588759999999999991e+03
1.589839999999999918e+03
1.590920000000000073e+03
1.592000000000000000e+03
1.593079999999999927e+03
1.594160000000000082e+03
1.595240000000000009e+03
1.596319999999999936e+03
1.597400000000000091e+03
1.598480000000000018e+03
1.599559999999999945e+03
